#Activity	walking running walking standing 
#ActivityID	1 2 1 8 
#Date 08-22-18-45
acc_rf_x	acc_rf_y	acc_rf_z	gyro_rf_x	gyro_rf_y	gyro_rf_z	acc_rs_x	acc_rs_y	acc_rs_z	gyro_rs_x	gyro_rs_y	gyro_rs_z	acc_rt_x	acc_rt_y	acc_rt_z	gyro_rt_x	gyro_rt_y	gyro_rt_z	acc_lf_x	acc_lf_y	acc_lf_z	gyro_lf_x	gyro_lf_y	gyro_lf_z	acc_ls_x	acc_ls_y	acc_ls_z	gyro_ls_x	gyro_ls_y	gyro_ls_z	acc_lt_x	acc_lt_y	acc_lt_z	gyro_lt_x	gyro_lt_y	gyro_lt_z	EMG_r	EMG_l	act
-32768	4792	-488	-143	-1940	-2219	-14504	-6800	-14488	-70	-2688	-616	-17040	-9552	10288	-1024	-179	-1322	-3976	9624	14136	125	653	-615	-17544	3664	-4544	321	1209	39	-17184	3880	-2128	1284	995	78	123	138	1
-32768	9504	-5100	-1502	-1728	-633	-11296	-4304	-13240	-488	-1679	-757	-16048	-10312	11000	410	-352	-322	-4240	9248	15488	223	844	-719	-17632	2288	-4992	567	1339	23	-17568	5528	-1976	1400	848	44	113	136	1
-32768	6100	-6536	-1208	-1213	401	-9520	-3352	-13696	-791	-414	-675	-14672	-8528	8896	581	-226	240	-3656	9672	14776	266	1140	-800	-17800	2568	-5128	699	1488	-65	-16464	6776	-3080	1262	691	-19	150	133	1
-30708	2684	-6128	89	-414	778	-9264	-2288	-12832	-1036	709	-251	-13424	-7576	6608	528	158	-58	-4272	9656	14688	349	1408	-958	-17496	3616	-5480	628	1615	-112	-16408	6664	-3024	900	625	-103	121	127	1
-28784	-1044	-3580	736	210	746	-10384	-5160	-13632	-803	1651	-66	-13320	-4792	4096	568	228	-342	-5120	10152	13992	436	1660	-1148	-17352	3264	-5472	499	1747	-156	-16416	5168	-2000	578	392	-199	128	131	1
-24276	-4904	-376	882	731	444	-11720	-8200	-12984	242	2451	-6	-10896	-3352	968	246	-308	-302	-5472	10120	14056	542	1911	-1370	-17736	2360	-5536	496	1895	-200	-17048	3720	-240	450	216	-165	127	134	1
22792	-26856	25748	3257	3338	564	-20488	-10136	32767	-578	1856	-13	-10336	-2528	-2440	-843	1355	531	-4880	11336	15688	548	2199	-1623	-19008	3328	-6112	672	2054	-211	-18032	5592	2344	937	-12	-61	134	129	1
-19784	-336	14032	1255	4489	1680	-32768	-1536	-2528	3869	2253	-254	-31776	-5608	14072	673	1164	-98	-5608	11112	14992	628	2676	-1973	-23528	2832	-5920	572	2216	-359	-22448	9392	5760	1195	-329	296	125	138	1
-24044	1224	27784	638	2564	1347	-13752	-2592	-9184	4291	2649	925	-20488	-72	9768	3258	1407	-106	-5480	14296	16568	899	3099	-2567	-25536	-1032	1688	1067	2408	-382	-21784	7360	9936	1179	-1218	213	135	135	1
-16512	-10524	17616	2	1716	1230	-16936	10520	-8328	1091	2553	-137	-18568	11888	-504	2815	1226	709	-6944	11968	15760	956	3813	-3210	-25408	-2344	-184	1556	2745	-242	-21912	920	14184	531	-1833	58	128	120	1
-11416	-8088	9644	240	406	352	-20272	-6224	-7416	-1029	1799	-749	-11744	10312	-11816	437	1534	303	-6376	15704	20432	1227	4481	-3955	-29648	-2960	1936	1978	3045	-114	-19976	-6912	12256	-444	-2219	-303	123	118	1
-11292	-8876	10428	288	289	273	-14456	-8584	-9280	-552	1179	-494	-11992	-1944	-8664	-1804	1878	377	-7664	21360	20328	623	4959	-4644	-28648	3064	-424	2361	3063	-19	-21768	-4664	6256	825	-2184	-375	121	125	1
-8644	-8932	12008	347	84	104	-14272	-8208	-9040	-421	1153	-475	-16704	-10408	-9184	-1050	1898	25	-11720	10440	22968	998	5148	-4619	-22432	3648	-776	1591	3093	-299	-21656	3464	-7520	3073	-1718	-138	120	127	1
-8180	-9188	11324	350	-19	22	-16544	-3160	-3824	1169	1097	48	-17760	-3824	-5088	843	1939	99	-10824	31416	21944	736	4006	-3960	-20736	5232	-14928	1170	3211	-233	-26776	5984	-9784	3194	-1834	644	135	126	1
-7676	-7936	11952	282	-25	13	-17760	872	-3296	567	949	-106	-16904	2656	72	1511	1588	156	-25600	32767	32767	-1382	1230	-2544	-15232	3456	-18976	-665	2183	-230	-29088	2368	-8480	1718	-2463	1265	121	124	1
-7652	-7528	12576	99	45	-17	-17384	1312	-3528	-796	485	-431	-17432	4080	-216	898	1428	401	4088	14744	18128	-879	-1537	-441	-20256	-3400	-5736	119	1036	-131	-30128	1456	-8064	-71	-3175	1214	114	123	1
-7684	-8004	12152	-86	108	-48	-16512	-5664	-2472	-1168	330	-595	-16864	1376	-1712	73	1386	677	4640	10872	10184	-340	-1808	-199	-13672	-2848	-5656	1268	-158	71	-24472	1664	-6560	-796	-3153	1550	136	123	1
-7684	-8680	11524	-159	120	-43	-14016	-10456	-1136	355	561	-330	-15536	-2640	-1432	-186	1232	655	5648	9776	8648	-288	-2076	624	-6352	-664	-6304	1108	-882	230	-21520	-40	-5680	-641	-3283	1710	146	125	1
-7576	-9052	10920	-97	74	-1	-14392	-5888	-1656	1339	681	-120	-15512	-4144	-1504	-72	1158	525	5512	7440	8360	-45	-2238	1386	-6224	-712	-5256	757	-1410	357	-18632	-256	-5256	259	-2609	1630	164	126	1
-7740	-8704	11060	-6	53	32	-16624	-56	-2752	425	532	-141	-15904	-2224	-1192	67	1205	418	2656	8184	9816	345	-2499	1890	-9304	736	-5328	322	-2192	503	-17704	656	-5432	622	-2114	1546	141	127	1
-7624	-8048	11560	17	72	40	-16632	-16	-2024	-994	300	-301	-15848	696	-344	210	1212	519	-448	9944	12512	558	-3086	2313	-8872	632	-7512	-122	-2962	636	-16688	1616	-5920	313	-2048	1384	130	130	1
-7684	-7788	11884	-49	115	30	-15520	-4816	-1968	-1281	243	-405	-15232	1792	-504	403	1332	679	-1920	9440	13144	801	-3881	2726	-7456	-384	-7344	-243	-3661	832	-15248	2888	-6264	-574	-2053	984	126	131	1
-7888	-7872	11720	-100	140	27	-14400	-7312	-1608	-499	363	-295	-15080	464	-1152	266	1494	684	-2848	8712	12008	1042	-4402	2814	-8856	-312	-5160	-56	-4193	1002	-12928	3352	-6144	-1315	-1905	713	126	127	1
-7624	-8276	11140	-124	149	29	-14808	-5992	-1216	22	504	-207	-15192	-1472	1328	-337	1816	421	-4584	10672	13128	1114	-4585	2678	-11432	-528	-7096	37	-4596	1206	-10696	2008	-6160	-1836	-1859	641	126	127	1
-7660	-8284	11020	-103	152	48	-14976	-4056	-1224	21	583	-156	-15592	-1024	1912	-906	2161	92	-6736	11808	15880	1243	-4691	2698	-13464	-712	-9472	-60	-4986	1310	-9200	1320	-5032	-1962	-1768	600	124	128	1
-7564	-8532	10964	-79	159	64	-14392	-4328	-312	-527	630	-167	-17216	-2936	-1512	-999	1905	1	-8576	13488	16768	1574	-4755	2817	-15280	-960	-8912	175	-5252	1227	-9096	736	-5472	-2025	-1696	590	122	128	1
-7588	-8924	10872	-44	140	120	-14728	-5688	-1216	-757	701	-166	-19288	-5192	-3888	-904	1307	170	-10208	18744	17432	1360	-4542	3054	-15664	-1592	-8944	492	-5366	1341	-8480	-600	-4520	-1971	-1415	388	121	129	1
-7876	-8540	11188	-7	125	156	-15704	-6496	-3592	-656	758	-83	-17464	-4952	-4936	-574	1175	267	-10120	18112	18096	1044	-3949	3506	-17552	-992	-9720	511	-5481	1502	-8176	-1824	-3984	-1750	-1219	288	122	133	1
-8036	-8376	11492	-27	149	153	-16208	-5408	-3752	-577	762	-45	-15648	-2528	-4632	-397	1192	331	-11544	20120	21008	1236	-3350	3777	-18288	-592	-9944	483	-5492	1526	-8512	-1768	-2144	-1394	-962	176	70	128	1
-8300	-8528	11320	-68	181	142	-15616	-4424	-3184	-662	767	8	-15328	320	-3312	-503	1126	329	-14720	23888	23768	1127	-3032	4053	-24184	3736	-11032	-840	-5645	1744	-9344	-3232	1368	-880	-608	212	119	130	1
-7936	-8428	11264	-123	214	146	-15112	-3872	-1920	-779	810	25	-16072	248	-1880	-588	989	236	-20768	19352	25736	929	-2509	4351	-24680	3616	-10344	-2310	-5456	1310	-10680	-664	5152	172	-95	255	120	128	1
-8128	-8884	11276	-89	214	191	-15184	-4784	-1744	-675	871	20	-17144	-1896	-824	-554	965	204	-29896	18200	25400	614	-2172	4272	-25152	3904	-13664	-2979	-4787	573	-12520	6048	10096	1300	490	497	119	127	1
-8020	-8228	11412	-162	244	246	-15432	-5184	-2016	-540	1027	38	-17272	-2096	-1000	-545	959	207	-32544	12232	16744	-584	-2052	3730	-21416	-1272	-16080	-3086	-3729	34	-17264	14568	19384	1983	-64	772	113	128	1
-7464	-9652	11936	-404	424	407	-15840	-6120	-2488	-235	1200	93	-15768	-1936	-1312	-478	968	201	-32768	2448	8096	121	-1801	2207	-15920	-1888	-16552	-1672	-2700	37	-17488	16288	18480	376	337	1065	136	127	1
-7824	-10536	12164	-293	736	589	-16240	-5992	-2728	-193	1215	87	-17232	312	-1808	-562	1011	135	-32768	-4672	2792	404	-1436	331	-8032	-1040	-17424	-25	-1169	571	-17280	10944	21800	-1958	-408	416	133	127	1
-7888	-9080	12756	-143	1045	702	-17896	-3368	-3176	-534	1410	143	-17936	136	-2104	-779	1031	121	-32768	-1584	3960	425	-320	-822	-7208	-368	-16736	1007	775	507	-16408	7360	16960	-2098	-645	77	127	127	1
-8408	-8348	12828	-157	1472	777	-17608	-4448	-3440	-511	1569	218	-17904	-1080	-2112	-995	864	189	-32768	2360	7560	-691	617	-1300	-11080	352	-15984	1662	2212	-47	-13528	1648	9712	-1449	-389	-192	122	127	1
-9080	-10340	12220	-135	1838	985	-17872	-4840	-3808	-401	1746	251	-18184	-2448	-2200	-937	669	312	-24728	5224	8792	-811	963	-1747	-14008	2992	-15640	1310	2917	-199	-15424	-248	12064	-165	-250	-457	114	126	1
-8888	-9432	11932	-174	2213	1201	-17504	-3624	-3632	-527	1914	301	-17528	-3632	-1096	-650	466	380	-8664	32767	5568	-5784	2758	-2323	-17352	12280	1080	2044	2873	-43	7024	-3480	-9720	1302	1928	-1168	119	126	1
-9608	-8972	11944	-278	2624	1447	-18184	-3168	-2712	-818	2060	358	-17888	-4000	240	-509	194	353	32767	19744	6856	-875	3080	-2193	-32768	1696	32767	3085	-157	-1071	-24728	17952	-9336	4285	2220	-67	122	125	1
-9220	-8652	13612	-215	3225	1687	-21800	-5008	-1616	-1138	2167	546	-19648	-6120	1296	-453	74	183	-25320	21752	32767	12	4138	-1264	-10880	16704	-27848	-4256	1259	590	-31696	23472	-2296	3836	1883	934	111	123	1
-10616	-10520	11556	-358	3913	2178	-24128	-2208	-584	-903	2320	664	-24544	-5728	7552	-117	-821	236	-11264	5176	23072	-462	2233	-1099	-18888	-4576	-7568	-3913	3661	-996	-17952	-4496	1520	-2481	1994	-623	122	122	1
-11628	-14008	9988	-362	4807	2934	-25160	-3000	5976	-1772	2386	604	-21552	-3432	11816	-437	-2177	200	-5024	7952	15808	-23	1723	-893	-20896	-4544	-3192	-2731	2482	-500	-19248	-10768	-3032	-2204	1136	-194	138	121	1
-18932	-14276	12244	220	4874	3912	-22656	-5888	2104	-2145	2706	425	-18152	3616	9608	-444	-2125	357	-5824	7912	16200	108	1543	-946	-12560	-4344	-8024	-910	1525	80	-9904	-4680	-72	-349	1112	273	143	123	1
-23488	-13568	12756	674	4809	4495	-22392	-9696	-2568	-1745	3053	466	-18912	3824	2248	-374	-1819	148	-9176	18320	16112	-119	400	-724	-12456	792	-11384	420	1325	512	-13656	6760	-3568	1059	1428	-278	132	127	1
-20012	-16320	17428	1376	4743	4752	-21736	-9592	-1528	-1194	3004	312	-20848	-248	-7456	-1824	-1328	-624	-5776	7904	15536	-260	79	-197	-22824	5512	-8128	271	1560	324	-18792	11344	-8472	1393	1806	-21	130	127	1
-22624	-8252	14708	-478	4665	3786	-19744	-4728	-11104	58	3173	524	-26752	-2808	-10568	-1630	-1425	-1286	-3984	11240	13320	-313	14	-75	-18912	3872	-4752	303	1058	115	-17768	7352	-2128	292	1506	406	129	126	1
-11816	-24404	23180	-2049	3162	2327	-18464	-672	-21320	615	2754	1063	-25992	-584	-10296	-583	-2086	-1636	-4336	10136	13720	-240	23	-59	-14664	1432	-3872	179	1017	53	-15728	3264	776	-180	1354	143	124	130	1
-13532	-29224	24940	950	-1307	603	-17328	-2800	-9720	-966	1394	545	-25768	2480	-8656	523	-2642	-1653	-368	7528	9200	-216	34	-72	-15288	-296	-3224	794	740	213	-15624	2032	1480	-180	1322	-240	124	130	1
576	-7064	13968	748	-2276	127	-14096	-1120	-4136	-1136	201	278	-23272	1544	-7512	877	-2564	-1546	-3320	8392	14152	-77	60	-87	-17200	1216	-3304	873	591	317	-16016	2016	1496	133	1246	-368	124	131	1
-176	-9644	10204	-240	-2610	-324	-9088	-3944	-6840	-467	-453	397	-19888	-344	-5976	625	-2298	-1184	-3608	8400	13752	-3	67	-108	-16848	3264	-2864	418	717	368	-15616	2640	1488	548	1211	-409	128	129	1
-544	-12300	8272	206	-3169	-752	-5016	-1864	-5720	-163	-1105	106	-19080	2000	-6552	297	-2031	-1266	-3600	9192	13456	19	55	-143	-17272	4600	-3200	-338	841	214	-15912	2840	1288	626	1192	-380	128	134	1
-1120	-9464	7812	314	-3497	-1133	-7360	-2216	-5648	-97	-1741	-178	-16640	-144	-6256	54	-1899	-1150	-3648	9440	13280	-3	53	-183	-15816	2768	-4232	-776	667	111	-16192	3784	792	931	1244	-266	105	135	1
-3324	-10180	7256	-30	-3671	-1511	-9312	-4432	-6144	443	-2413	-154	-15808	-3120	-5768	625	-1883	-1223	-4128	9264	13600	-35	94	-190	-15256	8	-5112	-300	499	151	-14760	3912	-568	1236	1134	-267	153	137	1
-5256	-11216	6676	-17	-3794	-1784	-8632	-3656	-6504	1230	-2909	-170	-15912	-2384	-5656	1277	-1826	-1293	-3608	8560	13720	4	114	-143	-16648	664	-4672	547	451	345	-15080	4240	-1008	1160	1134	-244	130	139	1
-7288	-10500	6972	-133	-3788	-2112	-9224	-2704	-7400	1819	-3292	-233	-14728	-736	-5656	1948	-1852	-1151	-3616	9080	13656	44	117	-117	-16536	3296	-3544	789	463	383	-15592	3136	-552	1082	1176	-320	121	139	1
-9184	-11368	7720	-397	-3677	-2509	-10824	-3000	-7992	2057	-3633	-269	-12432	408	-5512	2277	-1911	-958	-3984	9296	13432	49	123	-118	-16960	584	-2664	485	486	291	-15848	2472	-296	1020	1161	-400	126	140	1
-11080	-13864	9520	-610	-3548	-2996	-10856	4152	-14656	2375	-3517	-208	-9856	-832	-7000	2059	-1969	-715	-3520	10032	13400	60	114	-108	-15536	8080	-1736	481	389	215	-16344	2328	-80	1513	857	-882	120	140	1
-15020	-13328	10092	-612	-3434	-3433	-15448	-496	-13232	2039	-4545	139	-10168	1472	-4248	1876	-1582	-368	-3976	9088	13640	54	112	-92	-15792	4280	-3200	-100	495	224	-14320	5960	-1424	906	1178	-737	116	139	1
-15200	-11908	10940	-756	-3287	-3686	-13208	-2256	-9336	833	-4647	-320	-10352	1664	-4240	1699	-1575	-550	-3856	8912	13392	64	112	-96	-15928	3192	-3664	-46	637	217	-15424	8504	-360	211	1328	-428	112	135	1
-16548	-13936	11664	-777	-3171	-3584	-16472	-4760	-10280	635	-5024	-494	-10464	3424	-3536	1606	-1313	-384	-3592	9488	13056	58	128	-107	-15864	3472	-3104	189	760	125	-14816	9032	304	-371	1640	-227	136	135	1
-17976	-13324	13584	-978	-3049	-3491	-16456	-4784	-9344	546	-5317	-683	-9848	4424	-2992	1176	-988	-356	-3640	9384	13848	71	152	-126	-16112	3664	-4392	185	774	173	-15176	6560	-232	-225	1945	-250	127	134	1
-20088	-16068	15116	-1078	-2902	-3563	-17680	-5672	-9648	1245	-5167	-778	-9136	4984	-1600	610	-658	-324	-3840	8744	14128	132	186	-166	-16352	2376	-5472	189	794	189	-16432	2400	-2968	65	2126	-386	126	133	1
-21868	-14736	16092	-706	-2664	-3685	-20352	-4872	-9992	1922	-5046	-775	-8960	4448	824	-225	-428	-298	-4168	9296	14144	233	232	-210	-16344	2504	-4728	313	798	170	-17784	1104	-3208	176	1725	-467	125	134	1
-28064	-10104	17828	-963	-2226	-3942	-21848	-4560	-12544	1985	-4898	-499	-10056	-1144	3968	-1549	-306	-472	-4280	9112	13848	358	289	-279	-16624	2224	-4768	430	814	242	-16896	3008	-1224	314	1366	-381	124	138	1
-32768	-7228	14396	-1114	-2224	-3786	-20792	-4840	-12648	1001	-4392	-192	-12896	-7728	6472	-2036	-71	-976	-4376	8888	13184	521	369	-330	-16536	2232	-3936	669	937	248	-15640	4896	488	671	1248	-211	126	141	1
-32768	-548	6260	-798	-2354	-2730	-18320	-2488	-14920	217	-3664	-625	-18072	-9624	11296	-995	-172	-1365	-3872	9456	14120	712	517	-425	-16656	3960	-3792	715	1100	209	-16192	4360	1752	992	1296	-80	124	140	1
-32768	9536	512	-1553	-2038	-1341	-14280	-3440	-17496	-637	-2786	-840	-19016	-8624	14216	1	-124	-839	-4560	9408	14344	648	906	-616	-17808	4320	-3336	596	1310	156	-17752	4976	1632	1104	1240	8	123	135	1
-32768	12400	-4384	-1884	-1605	-90	-10648	-472	-16392	-1719	-1512	-992	-16720	-11280	12240	412	-248	67	-4400	10000	15440	708	1218	-761	-18408	3448	-3968	455	1541	64	-17976	6296	896	1209	1122	-79	121	135	1
-32768	11904	-6080	-962	-665	735	-9704	-2056	-17088	-2065	46	-595	-15168	-10312	9640	376	-15	385	-3824	10192	14912	782	1581	-898	-18744	2720	-4560	473	1764	-46	-17368	7016	-88	1247	986	-134	120	129	1
-32768	7044	-4324	-20	166	1157	-9392	-3280	-17240	-1548	1482	-41	-14016	-7064	5264	515	362	158	-3912	10360	14632	899	1925	-1111	-18144	2472	-4328	512	1975	-90	-16880	6736	1296	962	702	-245	128	128	1
-7644	-32768	4524	4560	2061	2209	-10208	-12664	-10416	-1303	2525	81	-16272	-3856	9648	218	-573	52	-4808	10568	14760	1155	2293	-1341	-18264	2080	-4544	527	2194	-142	-17120	7360	1192	700	461	-254	128	129	1
20420	-672	32767	2451	3249	2560	-32768	-9024	32767	-877	989	-481	-22376	-12632	6536	-876	188	-341	-4368	11416	16208	1350	2878	-1566	-22512	4320	-4672	540	2411	-369	-20296	11696	2656	684	286	-109	92	129	1
-27064	-2180	21660	1478	3449	1762	-19608	-11896	-10536	5866	3403	874	-25304	-10200	15568	1266	1555	-777	-4168	11472	16664	1823	3569	-2202	-27848	-1760	-2768	311	2512	-478	-26032	10120	10752	457	-866	60	120	130	1
-16156	-5084	17288	614	2544	1445	-11840	15648	-11040	4230	3610	1107	-16368	12528	-5648	3228	2056	1466	-4640	12344	15808	2211	4767	-2960	-30408	-9512	4056	1756	2851	-504	-24536	-88	17320	-297	-2097	-214	121	135	1
-22060	-15136	13268	1201	878	641	-15608	-7176	-13080	1057	2675	-165	-13552	13688	-10032	2293	1051	553	-11376	19824	19264	2174	5844	-3848	-28760	-2776	2144	2766	3273	-359	-19536	-11408	14648	-921	-2231	-617	130	127	1
-9144	-4220	12644	1082	145	562	-16936	-6264	-10328	1574	1901	-915	-8464	3184	-6888	-993	1456	256	-15960	21824	21536	2044	5937	-3983	-29752	8960	-4056	2337	3096	-354	-20872	-3288	4888	1451	-1833	-744	140	119	1
-11152	-3664	16808	711	11	279	-19608	2312	-10160	779	1496	-325	-17592	-3424	-9168	-1381	1685	-96	-26160	25352	15368	816	6472	-4590	-29176	9784	-4408	2087	3299	-394	-23688	8600	-11544	3988	-1198	-22	130	125	1
-8556	-8896	12136	327	44	63	-17432	-1064	-6344	-1477	1078	-49	-21592	-3032	-7824	-272	1966	-290	-11024	24392	32767	2405	3858	-3653	-23176	4384	-13712	-1476	3899	-1428	-28096	10536	-11384	2752	-1688	1040	119	119	1
-7424	-8476	11996	240	10	57	-15776	-2600	-3968	-2574	743	-247	-16248	288	-1264	109	1572	-2	-6384	32767	31720	-828	-803	-2267	-19776	6296	-14976	-2222	2341	-579	-29024	2440	-6496	-157	-2829	1045	113	120	1
-7412	-7132	12460	115	72	73	-15904	-5432	-3888	-2455	504	-494	-16624	1088	-840	-422	1528	278	3472	10904	16616	-2384	-2304	-2140	-19624	-4536	-3056	210	1387	-512	-28688	728	-7720	-1614	-3409	828	117	124	1
-7588	-7712	12340	-27	146	65	-15984	-10944	-2720	-664	525	-415	-17560	-2488	-2888	-640	1407	775	3840	10904	11288	-1275	-3229	-2009	-11440	-1624	-7000	1053	57	-134	-23416	1952	-6736	-1462	-3031	1280	70	123	1
-7800	-8084	11892	-46	141	56	-14352	-9904	-4168	1559	860	-82	-14824	-4512	-2440	-322	1260	911	7192	14584	7256	-1624	-3428	-1001	-6416	-1904	-5576	1796	-616	-129	-21360	960	-5752	-602	-2914	1383	165	121	1
-7656	-8156	11432	26	121	63	-15296	-4728	-3944	2264	899	146	-14632	-3784	-1768	-32	1219	659	6784	7936	5672	-1619	-3164	147	-7552	-2640	-5160	2164	-1429	-56	-18640	824	-5880	238	-2572	1084	129	127	1
-7684	-8380	11500	111	91	87	-16536	448	-2496	1041	631	-22	-16696	-1384	-1344	0	1318	446	5296	7680	5664	-578	-2883	1100	-8544	120	-5568	1947	-2261	26	-18664	1592	-6480	395	-2393	1152	143	129	1
-7692	-7596	12172	83	99	99	-16848	504	-2832	-895	322	-260	-16808	808	-288	-161	1356	530	2208	12384	8064	-138	-2797	1923	-8144	2192	-6568	1368	-2938	164	-17752	1712	-6912	-86	-2414	1011	131	125	1
-7580	-7236	12212	-11	133	78	-15584	-4392	-1816	-1736	227	-308	-15336	704	72	-249	1399	685	-1192	12216	10840	-95	-3198	2648	-7144	3608	-7704	697	-3643	462	-15632	3200	-7048	-748	-2277	656	125	130	1
-7816	-8024	11672	-35	143	83	-13928	-8304	-904	-1203	380	-213	-14504	-624	-336	-332	1469	782	-3624	10952	12008	296	-3877	3037	-7768	4072	-7128	-110	-4181	553	-13008	3768	-7152	-1202	-2138	570	124	123	1
-7740	-7652	11808	-22	127	103	-14160	-7328	-1304	-135	547	-180	-14536	-760	-440	-339	1477	785	-5160	12272	11464	483	-4446	2997	-9528	2960	-7376	-634	-4649	657	-10784	2832	-7072	-1744	-1967	747	125	126	1
-7644	-7844	11764	-8	114	113	-14696	-5296	-1568	261	659	-131	-16000	-3896	1112	-268	1871	628	-7096	12552	13128	431	-4766	2829	-11264	1704	-8816	-1130	-5111	753	-9752	1376	-7496	-2108	-1728	727	123	127	1
-8000	-7836	11812	16	94	123	-15264	-4304	-2512	57	697	-141	-15912	-4496	1200	-734	2334	443	-8872	12552	14056	747	-4962	2687	-12960	536	-9704	-1320	-5469	749	-9368	-368	-7912	-2209	-1500	469	123	129	1
-7960	-7664	11800	15	97	137	-15056	-4256	-2952	-467	683	-139	-16272	-4744	-3568	-637	2176	474	-9616	17128	14496	887	-4956	2619	-14488	-1472	-9512	-742	-5682	695	-8808	-2368	-7536	-2205	-1379	178	124	128	1
-7968	-8152	11900	16	88	166	-15272	-5520	-2944	-674	668	-116	-18408	-4016	-5792	-103	1587	507	-10808	19880	16800	729	-4550	2954	-15592	-2320	-10760	108	-5899	871	-7904	-4552	-6752	-1771	-1159	-82	124	129	1
-8300	-7664	12372	-22	129	213	-15328	-5544	-3352	-656	675	-118	-17680	-1688	-5248	344	1339	488	-11608	21136	20120	1043	-4049	3630	-18952	-1592	-12368	747	-6093	1112	-7368	-4776	-6968	-1620	-1144	-89	117	127	1
-8188	-7316	12136	-72	214	259	-15808	-4776	-3624	-454	737	-81	-15392	-944	-3560	171	1251	571	-15736	29192	23344	1122	-3619	4239	-25368	2968	-12712	1148	-6222	1618	-6848	-5232	-2240	-418	-563	-196	130	128	1
-4008	-8384	12388	-45	406	300	-15296	-4616	-2624	-500	795	-69	-15424	-1360	-1144	-15	1159	586	-23144	23000	28000	1177	-3205	4932	-26808	8656	-12712	-170	-6238	1785	-8928	-344	3640	363	-228	-6	121	126	1
-8036	-7524	12460	-124	584	338	-15752	-4136	-1848	-549	950	-34	-17848	-1968	320	161	1115	418	-32768	21560	24824	2017	-2961	5021	-27064	9560	-15456	-2013	-5604	1126	-12584	8744	10200	1518	-64	657	120	127	1
-7760	-7296	12744	-173	755	369	-16120	-5232	-1064	-552	1158	3	-18584	-2008	1096	83	1095	332	-32768	19880	14088	909	-2620	4315	-23040	5672	-15184	-2867	-4259	443	-20112	16248	18312	1765	41	1586	127	126	1
-8408	-7576	12392	-219	1004	416	-16072	-5896	-2040	-377	1401	82	-17072	-1720	592	-349	1070	263	-32768	-3248	6496	1092	-1803	2522	-17296	672	-21760	-3026	-2858	433	-17384	14904	24952	1863	98	1396	127	126	1
-8552	-7952	13012	-210	1274	491	-16872	-4784	-3264	-258	1583	144	-16376	-56	-1144	-715	1158	91	-32768	112	1168	1925	-2039	148	-8528	-4824	-21344	680	-1496	752	-16808	16856	23800	-211	-12	922	130	126	1
-8764	-7200	12928	-223	1623	549	-17176	-3848	-4368	-453	1682	226	-16760	-472	-2832	-1004	1055	118	-32768	-1808	1960	986	-1164	-1384	-3624	-664	-15840	3527	810	1240	-16760	10240	14328	-347	-259	564	116	126	1
-9220	-8548	12520	-204	2013	680	-16864	-4736	-3208	-485	1770	299	-17432	-2184	-3184	-1128	802	208	-31480	7400	4128	-503	121	-1819	-10648	672	-17568	4095	2528	588	-12200	5896	6952	-425	116	384	126	126	1
-9760	-8536	11648	-267	2310	970	-17176	-4872	-3872	-534	1923	281	-18072	-2816	-1200	-915	437	325	-21640	7600	6760	-942	1009	-1797	-17496	7088	-12264	2726	3187	50	-10544	6032	432	207	489	89	77	125	1
-9620	-8124	12032	-347	2623	1227	-17104	-3288	-3272	-850	2084	272	-17488	-3432	1104	-673	85	377	32767	32680	9192	-5633	3373	-1973	-32744	22160	32767	5121	2329	-455	480	5696	-11608	139	892	-642	129	124	1
-9464	-8636	13196	-424	3087	1534	-19552	-3728	-2280	-1343	2213	336	-19096	-5472	3248	-697	-329	171	-24472	9496	18048	-456	5055	-1520	-13736	8104	-3648	-5213	1602	155	-28528	32767	10752	1016	1798	1043	155	125	1
-9432	-10068	12988	-361	3916	1944	-25792	-3576	-2176	-1397	2372	580	-24064	-6800	9312	-658	-1130	-240	-19472	1672	27624	-407	2805	-1577	-12928	-19936	-9696	-8058	2862	-1215	-25072	2320	10472	-3686	2080	-331	135	120	1
-10868	-13124	12484	-363	4948	2807	-28216	-2248	6392	-2005	2412	546	-21376	-3408	9472	-991	-2022	-147	-6344	23624	11664	-192	2093	-1034	-28672	-7536	-8128	-4795	3238	-1461	-22920	-19408	-7432	-5478	1150	-776	135	120	1
-20184	-12928	11380	-211	5500	3754	-24760	-3856	1624	-2513	2711	466	-21472	5720	11856	-479	-2016	423	-23304	17400	28496	-298	1940	-817	-16384	-1520	-14744	-2893	1934	290	-12576	-14880	1248	-1789	323	-73	135	122	1
-21448	-14660	12596	-61	5466	3941	-22352	-13184	-3784	-2426	3069	357	-19944	2240	904	-1008	-1667	234	-8560	19840	16024	-549	479	-885	-9384	-4832	-13992	-958	1472	569	-11456	-2224	-2592	896	1330	39	128	125	1
-16240	-15444	19172	1504	4932	4735	-23104	-11232	-1336	-1511	3032	413	-21592	-4920	-9440	-2134	-1144	-650	-3984	6304	17816	-344	81	-257	-20704	-4088	-9240	1159	1612	601	-19568	5312	-10584	2470	1852	593	120	123	1
-22512	-12892	21564	-846	4387	3456	-19688	-4528	-12472	959	3271	816	-26768	-4504	-10512	-1188	-1618	-1400	-4976	12104	13752	-316	48	-118	-22952	3760	-5656	3036	1285	548	-18368	6968	-5032	2943	1734	971	119	124	1
-32768	-30272	32767	-1002	1575	2422	-18104	-1672	-18424	454	2482	893	-27920	624	-7576	167	-2512	-1407	-3424	10336	13384	-249	-1	-92	-14944	4096	-3656	2624	874	481	-15488	7496	376	2007	1439	525	127	128	1
-8288	-24164	24136	1026	-2091	751	-17912	-2048	-4992	-874	924	350	-28400	2752	-8248	1100	-2856	-1233	-2824	8280	14064	-128	13	-99	-14928	2800	-3288	1879	741	554	-16840	5192	-480	1260	1256	-306	118	127	1
636	-8756	13288	314	-2675	247	-14520	-1648	-5296	-701	-161	98	-23800	2720	-6920	861	-2591	-1181	-2976	8528	13672	-4	49	-83	-16344	5072	-2736	626	618	408	-17040	5000	-736	1101	1220	-496	123	129	1
-1200	-13836	10572	-124	-3034	-537	-10040	-2464	-7440	-375	-868	90	-21616	1976	-5816	64	-2398	-1221	-2936	9280	14040	55	45	-98	-16264	5712	-3064	-728	750	252	-14360	5424	960	308	1158	-768	129	127	1
-936	-12292	9000	377	-3378	-1183	-6368	-352	-6024	-491	-1641	-65	-20200	288	-5928	-147	-2122	-1211	-2408	9736	12872	14	-3	-126	-16712	4800	-3032	-1682	837	-27	-15368	5392	912	131	1285	-446	128	132	1
-1800	-7780	8384	14	-3347	-1628	-8304	-2336	-5576	-309	-2351	-77	-17904	-1720	-5680	221	-2195	-1228	-3088	10208	12960	-47	-15	-155	-17120	784	-3456	-1627	614	12	-16128	3928	336	206	1355	-276	125	138	1
-5436	-8824	8720	-528	-3332	-1978	-9616	-2696	-6832	565	-2912	-146	-17568	-1800	-5552	348	-2207	-1238	-3000	9448	12944	-67	34	-149	-16024	-1968	-4512	-399	460	175	-15232	3240	72	537	1345	-327	156	139	1
-7808	-9220	9356	-711	-3536	-2322	-9632	-960	-7872	1223	-3314	-250	-15784	1488	-5936	1798	-2185	-1200	-3200	9488	13488	-63	49	-143	-16072	-2048	-4712	-142	448	199	-14048	3992	-120	670	1328	-282	131	139	1
-9500	-8836	10096	-989	-3752	-2696	-10000	-360	-8664	1229	-3701	-358	-14264	3240	-5816	1945	-2195	-995	-3408	9504	13544	30	127	-104	-15984	4096	-2016	1178	497	411	-14568	3992	96	555	1341	-392	124	138	1
-10252	-9896	10036	-1000	-3852	-2922	-11680	-504	-8840	1155	-4091	-429	-12320	4072	-5840	1556	-2158	-717	-3152	9656	13552	38	139	-107	-16048	5392	-1528	378	578	222	-14392	1160	-1824	151	1616	-304	120	136	1
-12028	-8260	11384	-1175	-3746	-3126	-12424	520	-9896	1095	-4571	-425	-8208	4608	-5848	1165	-1914	-276	-3288	9664	13592	18	151	-124	-15848	4928	-2384	-302	581	192	-15320	5432	768	-5	1203	-904	119	138	1
-14552	-10020	12308	-1368	-3684	-3297	-12280	456	-10304	730	-4913	-571	-9632	3456	-5688	1013	-1801	-482	-3768	9704	13552	-32	150	-144	-16360	3712	-2480	-432	715	142	-15968	8640	2688	-398	1569	-574	125	136	1
-14988	-10400	12792	-1259	-3558	-3366	-13896	-248	-9912	499	-5209	-824	-8208	4504	-5392	890	-1504	-248	-3280	9688	12640	-48	151	-153	-15880	2800	-3656	-326	797	82	-14904	9120	1768	-127	2160	-397	124	135	1
-16188	-11140	14764	-1301	-3222	-3460	-15240	-1640	-9696	660	-5417	-935	-6864	4848	-5128	566	-1170	-144	-3864	9760	13240	-53	171	-158	-15856	2696	-4480	-1	875	124	-15288	6248	-2216	202	2353	-425	125	133	1
-19392	-13872	17136	-1155	-2980	-3695	-17272	-2872	-10304	1085	-5510	-984	-6472	4584	-4072	175	-718	-25	-3768	9712	13456	-41	194	-203	-16472	2136	-4664	281	851	210	-17712	2352	-4176	-103	2019	-407	127	132	1
-23012	-14492	18440	-752	-2780	-4040	-20136	-4552	-11072	1708	-5499	-929	-7192	3496	-720	-433	-295	45	-3776	8936	14136	45	238	-235	-16728	2232	-5112	445	807	206	-16504	1584	-2696	-262	1795	-512	125	132	1
-28684	-10360	17660	-503	-2409	-4163	-22976	-5784	-12352	2204	-5292	-571	-8856	-2864	2768	-1494	-82	-295	-3528	8480	14784	200	293	-291	-16680	1920	-3960	433	854	195	-16408	2560	-672	156	1626	-531	127	136	1
-32768	-6488	13828	-516	-2151	-3732	-22472	-5480	-13456	2181	-4659	-152	-13056	-8360	6896	-1967	-27	-966	-2648	9896	14248	269	566	-420	-16720	3328	-1912	469	1013	218	-16528	4112	2344	329	1431	-335	125	135	1
-32768	-2648	6200	-111	-2248	-2744	-19264	-2408	-16248	1634	-3694	-220	-20256	-9064	14248	-647	-287	-1306	-3208	9760	14400	415	810	-531	-17384	3560	-2400	447	1289	191	-17144	4336	2424	410	1217	-33	124	140	1
-32768	10952	-600	-963	-2010	-1368	-15296	-1912	-18496	29	-2843	-492	-21080	-10544	16880	407	-385	-608	-3712	9376	14448	539	1066	-640	-18272	3456	-4128	360	1521	68	-17232	4800	656	727	1287	-11	124	136	1
-32768	17372	-5124	-2489	-1532	85	-10864	272	-17312	-2199	-1749	-887	-18008	-10800	13488	619	-446	302	-4400	10008	14824	663	1378	-724	-18360	3336	-4688	277	1653	-32	-16792	6248	-1528	1133	1168	-107	123	138	1
-32768	12092	-6752	-1955	-1108	1204	-8208	-3312	-17024	-3506	-277	-681	-15104	-5736	9896	66	-191	564	-4480	11000	14104	685	1719	-889	-18432	3464	-4416	260	1809	-104	-17744	6904	-664	956	1078	-209	120	130	1
-32768	5288	-7076	-177	-705	2019	-8808	-5304	-16456	-3190	1205	-124	-12664	-3512	4152	-691	300	179	-4672	10144	14376	785	2048	-1150	-18584	2456	-4144	343	2005	-134	-17472	6416	1056	626	753	-233	125	120	1
-31392	-1044	-3964	831	-86	2229	-11504	-8704	-16664	-1973	2295	24	-14112	-4280	5656	-1161	-333	-107	-4600	10512	14968	1027	2405	-1395	-18584	904	-3744	556	2255	-209	-17704	5416	3072	377	388	-221	119	134	1
19924	-32768	14568	5422	1148	2885	-22208	-25760	32767	-4481	1503	159	-5616	-3040	-8944	-1402	1629	486	-4872	8624	15656	1482	2833	-1693	-20488	1040	-4472	738	2475	-282	-19000	7616	6632	641	-245	-194	107	129	1
-19912	10400	5200	724	5190	1320	-32768	-3760	456	6107	2731	-403	-30848	-21968	12992	-608	1785	-579	-5408	12984	15536	1921	3651	-2092	-27600	-1152	-1688	953	2723	-589	-23112	9168	10624	875	-1009	159	113	143	1
-32244	1232	32767	932	2568	1652	-14672	1160	-13064	7974	3550	1754	-27984	-8832	12072	4434	1398	-278	-1760	14480	17424	2143	4641	-2895	-30344	-6600	4080	1769	2888	-612	-25448	1216	13432	552	-1838	-164	128	116	1
-25764	-30328	7652	1210	556	702	-21168	6288	-9496	2313	3160	393	-21880	17752	-3408	3853	1514	1432	-12024	19944	20248	2203	5732	-3695	-29088	-4496	936	2702	2966	-578	-20488	-7032	11696	-10	-1725	-646	126	129	1
-22164	-29884	204	889	684	413	-16192	-5144	-9064	1000	2055	-1126	-9632	11568	-13224	873	1586	213	-13960	25288	18376	1133	5896	-4134	-30504	9448	192	2427	3280	-694	-22672	-2216	5704	1087	-1785	-733	140	122	1
-13372	-15460	9124	621	131	273	-10560	-4008	-9232	599	1571	-275	-5952	2728	-6056	-1726	1424	444	-13528	28360	30672	-1277	5940	-4494	-23792	13720	-352	801	3510	-1021	-23088	8568	-9656	3117	-1296	-127	127	126	1
-9968	-8560	12324	460	-46	174	-15560	-744	-8752	-354	1176	-419	-17368	-5456	-11152	-1603	1595	181	-8776	18848	22792	1571	4751	-3284	-22384	3400	-11736	-2143	3335	-1346	-26832	13648	-11000	1983	-1687	964	128	123	1
-8220	-7876	12320	239	-5	59	-22216	-1800	-4712	-1631	851	-121	-20608	-1032	-5224	-478	1598	-417	-17080	32767	32767	-202	481	-2218	-18184	4240	-23520	-3123	2528	-1235	-28456	5312	-7048	-731	-2804	1176	112	122	1
-7252	-7432	12176	104	35	43	-17328	-744	-3704	-2841	487	-393	-16880	1360	-1232	-380	1555	2	5024	15208	18872	-2671	-1916	-1385	-20248	-1440	-2424	-772	1323	-924	-28544	1488	-7776	-2298	-3249	1014	115	123	1
-7652	-7484	12252	-6	97	43	-14368	-8024	-3328	-2774	252	-468	-16896	-400	-2168	-1187	1422	566	3800	9768	12512	-1732	-3002	-1506	-13648	-1360	-6680	68	-82	-308	-24648	928	-7040	-2100	-3079	1376	90	124	1
-7556	-7900	11892	-103	129	21	-13408	-12568	-1176	-126	531	-325	-16880	-4344	-2600	-981	1302	900	6416	15456	8064	-1693	-3510	-645	-7536	-1664	-6152	964	-800	-415	-21712	496	-5280	-1212	-2961	1506	179	125	1
-7688	-8240	11548	-77	102	30	-13976	-9720	-2984	2147	956	91	-14240	-4888	-1680	-426	1151	871	5896	11824	6952	-1981	-3380	449	-8408	-3456	-5736	1864	-1466	-282	-19072	-1016	-5104	0	-2722	1181	123	124	1
-7788	-8668	10948	35	85	50	-16664	-2752	-2888	2208	902	178	-14512	-4336	-1968	-72	1205	749	3952	9312	7240	-1168	-3211	1470	-9896	32	-6680	1933	-2398	-115	-18872	1080	-5168	373	-2485	1211	135	127	1
-8084	-8564	11304	138	46	69	-16736	1592	-1792	71	556	-66	-16224	-2016	-1424	120	1330	624	2088	10648	8064	-379	-3155	2218	-9024	880	-7200	1509	-3184	-54	-17976	1960	-6472	-8	-2470	1161	126	126	1
-7888	-7744	11548	116	60	79	-15160	-1816	-1424	-1652	338	-236	-15520	32	64	323	1357	695	-448	11360	10048	-102	-3300	2706	-8128	2520	-6952	958	-3936	277	-16456	1584	-7208	-612	-2277	752	124	128	1
-7808	-8148	11828	56	95	98	-14544	-7088	-464	-1591	378	-198	-14120	-496	184	370	1505	800	-3184	10800	12416	202	-3797	2943	-8552	2272	-7416	258	-4407	530	-14096	1368	-7536	-1086	-2260	531	123	125	1
-7716	-7932	11920	65	70	109	-14352	-8416	-1040	-671	557	-125	-14832	-2936	1136	8	1801	761	-5688	12896	13616	421	-4483	2887	-9352	1600	-7864	-9	-4807	670	-10920	792	-7464	-1508	-1950	495	123	123	1
-7348	-7264	11268	57	90	106	-14608	-6480	-896	111	718	-64	-16216	-4200	2712	-350	2165	637	-6592	12832	14848	385	-5034	2728	-11192	736	-8760	-258	-5223	894	-9376	-568	-7104	-1569	-1760	391	123	124	1
-7448	-7704	11792	92	90	125	-14832	-4896	-872	360	848	-4	-17008	-4016	-552	-251	2178	569	-8152	11976	16008	920	-5296	2567	-13568	80	-9248	-451	-5649	987	-8808	-856	-7784	-1669	-1551	289	123	126	1
-7748	-8204	11880	100	99	172	-15400	-4224	-1760	107	901	-32	-16768	-4064	-3776	-31	1617	516	-9848	17096	15872	1190	-5168	2503	-15512	-3320	-8192	-95	-5890	980	-7488	-2080	-7256	-1847	-1222	134	123	125	1
-7692	-7524	11820	59	134	213	-16000	-4352	-3224	-290	904	-37	-18560	-2552	-3088	183	1284	472	-11856	20184	19648	883	-4567	2846	-16872	-4272	-11792	629	-5957	1247	-7048	-4400	-7024	-1724	-1172	-73	123	127	1
-8152	-8180	11908	3	169	234	-16176	-4608	-3032	-563	863	-32	-15976	-1208	-3096	6	1349	504	-14936	23792	23760	1158	-4216	3660	-21352	-2680	-14136	1075	-5973	1474	-7184	-4064	-3504	-1595	-1056	-255	123	126	1
-7784	-8224	11524	6	178	243	-14960	-5472	-2288	-656	868	-26	-14656	104	-3112	-375	1309	558	-19304	25464	24872	973	-3712	4700	-27280	3432	-14712	519	-6114	1813	-8680	-2680	1000	-1151	-893	-218	120	128	1
-7516	-7848	11344	46	208	367	-14344	-5832	-1864	-553	957	1	-15664	-512	-1528	-522	1119	400	-20720	24168	25184	979	-3578	4866	-24856	5384	-14072	-1237	-5840	1357	-10304	3336	6912	-306	-433	282	122	128	1
-7772	-8320	11800	123	280	560	-15120	-5808	-2048	-421	1110	-5	-16632	-1808	-416	-607	1047	162	-32768	19720	18432	335	-1998	5162	-21672	7336	-15792	-3221	-4595	496	-15488	8816	12336	644	345	813	119	127	1
-7628	-7836	12704	118	478	641	-15616	-4904	-2112	-469	1283	-3	-16640	-3208	-640	-737	1047	139	-32768	8080	8920	-511	-1310	3984	-18048	4480	-19480	-4973	-3234	-284	-18464	12720	23232	673	85	798	122	126	1
-8904	-7264	12752	60	759	670	-17960	-3968	-3728	-586	1451	90	-17424	-1984	-1904	-701	1017	112	-32768	-1280	4528	761	-1001	1904	-15920	-1200	-23288	-3996	-1732	-400	-15904	13624	23120	-409	-95	278	123	126	1
-8384	-6428	13844	117	1159	692	-18008	-3984	-4560	-645	1598	135	-17456	-1576	-2040	-550	969	243	-32768	-416	2960	627	-831	-164	-6088	-4936	-21192	-198	-304	436	-19176	7696	19832	-1501	-408	531	123	124	1
-8264	-7128	13796	42	1614	716	-17448	-5456	-3984	-434	1772	313	-17088	-2544	-2664	-749	841	356	-32768	1848	4040	33	-27	-1381	-6008	-968	-18696	2514	1579	593	-16920	1200	12968	-1233	-409	127	123	125	1
-9128	-8516	13184	-39	2056	852	-17648	-5040	-3680	-236	1954	404	-18312	-2688	-2280	-725	596	368	-30544	7120	4960	-372	453	-2174	-12344	2864	-17472	3767	2741	509	-16592	1072	19256	622	-1317	-86	120	125	1
-9268	-8192	13168	-148	2428	1127	-18456	-3144	-3936	-506	2072	399	-18752	-2280	-376	-617	348	422	32767	32767	8192	-2643	2598	-2764	-17208	9912	-9376	3513	3193	479	8888	-4056	-12992	2839	2888	-1383	127	126	1
-9864	-7960	12488	-268	2870	1453	-19184	-2168	-4080	-1106	2133	404	-18368	-3192	1352	-675	-11	428	2344	6144	18128	776	3641	-2829	-32768	-5712	14648	1045	410	-7	-31032	12312	-3328	4211	2058	-54	122	127	1
-9596	-10916	13352	-63	3459	1774	-22216	-5152	-2520	-1534	2174	628	-20488	-5768	2896	-686	-179	163	-16760	15768	27704	-372	2782	-2304	-7040	22376	-20640	-3263	1148	453	-24320	15616	16488	-360	625	1673	127	123	1
-11148	-9440	13248	-239	4048	2451	-24864	-4368	-2432	-1209	2323	677	-24736	-7120	9040	-654	-1394	83	-10360	15120	18376	-114	2230	-1365	-23104	344	-8960	-4274	3539	-820	-17928	-1152	-1712	-1570	1685	-415	132	121	1
-14340	-15512	12560	84	4679	3321	-27192	-4184	6464	-2113	2321	533	-19816	-1192	7376	-772	-1830	212	-5280	8368	15168	354	1973	-877	-22064	-6656	-7232	-4265	2394	-370	-18200	-7552	-6456	-2104	1067	988	129	121	1
-21732	-12444	14264	606	4869	4236	-26712	-4072	5952	-2217	2358	513	-19952	4936	8504	-233	-1848	453	-11272	13656	17584	41	1184	-1149	-13560	-2440	-9384	-1879	1440	-17	-11848	-1744	2768	506	1511	-105	137	122	1
-22932	-15400	17088	976	4626	4429	-21144	-10176	1552	-2645	2761	497	-19600	4616	6808	-162	-1782	428	-7384	15112	13320	-236	755	-575	-13968	1352	-8368	2	1285	705	-15712	9936	-6480	915	1693	-220	128	124	1
-24812	-10156	15644	695	4718	4171	-19264	-9200	-7888	-1416	2997	526	-20688	-2768	-7912	-1754	-1199	-647	-2912	14640	13800	-257	210	-231	-22576	-1808	-6600	764	1033	723	-18448	8480	-7032	318	1867	345	121	126	1
-18668	-10108	22552	-813	3435	3016	-19120	-3728	-13496	64	3007	855	-27592	-1752	-8336	-713	-1693	-1274	-4152	9840	14552	-224	70	-117	-19264	1168	-5808	1648	1225	304	-17744	3224	-1392	-324	1513	154	120	126	1
-32768	-32544	32767	-163	111	1844	-19856	-1312	-18096	238	2148	803	-27184	2880	-7920	326	-2322	-1426	-3640	10064	13712	-143	49	-82	-15392	2608	-3320	1606	929	368	-15248	1160	848	-132	1354	32	124	127	1
-3936	-18316	17780	1142	-2024	825	-17720	-984	-3048	-1042	673	391	-25688	4544	-7904	923	-2660	-1359	-3280	9984	13288	-21	63	-78	-15032	3272	-3160	1097	606	465	-15080	3344	-432	-58	1351	-228	125	126	1
892	-8520	11300	266	-2188	298	-12408	-1152	-5880	-657	-126	238	-21048	3432	-6216	543	-2340	-1431	-3112	9976	12784	95	91	-69	-16160	3928	-2768	176	564	380	-15600	3144	104	295	1329	-379	121	128	1
604	-12592	8856	-186	-2325	-432	-7792	-1280	-5912	-405	-770	154	-20160	3176	-5424	71	-2177	-1367	-3184	9984	12904	154	95	-81	-17104	3712	-2696	-660	821	235	-15752	3416	1096	597	1279	-401	129	129	1
504	-11100	7844	-9	-2440	-1095	-6784	-616	-5312	-296	-1420	-148	-18800	2864	-6200	-320	-1991	-1429	-3232	10136	13048	177	70	-106	-17688	2512	-3240	-984	791	117	-15984	3320	800	811	1270	-262	127	131	1
-2044	-9592	8712	-323	-2433	-1794	-8424	-1560	-5952	202	-2076	-275	-16672	968	-5600	-188	-1970	-1350	-3504	10344	12392	139	45	-134	-17480	2032	-3696	-945	760	116	-15248	4136	272	1015	1310	-265	117	137	1
-5388	-9780	10184	-686	-2700	-2429	-8424	-1744	-8016	1056	-2680	-325	-15832	-240	-4848	448	-1937	-1290	-3576	9952	12568	98	60	-145	-15760	-608	-3776	842	488	370	-14608	4144	312	958	1217	-251	116	137	1
-7644	-9132	10360	-948	-3099	-2862	-9176	-264	-6376	1255	-3174	-439	-15024	416	-4040	1061	-1896	-1175	-3296	10488	12352	63	103	-163	-16104	2096	-2920	1353	523	467	-15080	3488	-128	749	1174	-349	133	137	1
-9176	-8552	10304	-1042	-3411	-3042	-10672	-1336	-6808	1422	-3578	-639	-13472	992	-4256	1664	-1898	-997	-3208	10880	12040	-14	143	-178	-16000	5552	-2512	820	527	342	-14824	3016	-96	780	1182	-465	132	137	1
-10252	-7676	10868	-1103	-3544	-3035	-12016	-1520	-7840	1707	-3926	-742	-12096	1656	-4832	1948	-1925	-736	-3568	10528	12496	-69	140	-175	-15400	5216	-2560	-78	534	196	-14664	4464	112	648	1235	-520	130	136	1
-12612	-7644	12464	-1354	-3560	-3049	-13120	-1536	-8896	1714	-4280	-653	-11504	1864	-5256	1854	-1890	-567	-3704	10192	12576	-89	125	-169	-15696	3544	-2944	-459	585	142	-14688	4768	32	598	1253	-536	124	137	1
-14780	-10088	13152	-1347	-3619	-3148	-13416	-632	-9536	1535	-4567	-674	-10080	2208	-5008	1786	-1784	-427	-3680	9944	12760	-100	125	-155	-15728	3320	-2768	-480	598	135	-15520	6320	832	13	1606	-431	125	135	1
-15268	-10232	14056	-1229	-3486	-3345	-13608	-512	-9608	1498	-4611	-687	-9432	2192	-4712	1551	-1585	-234	-3896	10648	12560	-90	118	-140	-16000	3296	-3664	-131	751	137	-15224	8120	376	85	1966	-411	127	134	1
-15300	-10152	14212	-1247	-3435	-3381	-16960	-1064	-9208	795	-5158	-644	-8536	3160	-3680	1292	-1311	-200	-3632	10216	12856	-82	126	-151	-16240	3736	-3736	-33	779	83	-15320	6408	-1856	108	2047	-410	131	134	1
-19164	-13348	16928	-1265	-2993	-3546	-18112	-2920	-10176	529	-5347	-822	-7776	4224	-2664	883	-911	-204	-3864	10008	12896	-61	140	-161	-16256	3488	-3856	-27	775	79	-16520	2712	-2904	-304	1789	-239	124	134	1
-21168	-14784	17132	-1003	-2811	-3674	-20544	-4880	-10408	969	-5397	-967	-8984	4912	-608	279	-580	-151	-4048	10032	13272	-23	156	-179	-15600	2904	-3472	-31	896	82	-16344	1816	-1336	-378	1422	-130	123	135	1
-21396	-14492	17036	-950	-2731	-3687	-23056	-6392	-10880	1687	-5254	-754	-9328	5064	-136	138	-548	-147	-3656	10264	13168	44	187	-220	-16232	2720	-3456	26	983	113	-16440	3232	104	54	1297	-122	122	136	1
-32768	-5204	16856	-1547	-1901	-3445	-21960	-5784	-12888	1511	-4735	-441	-14024	-3848	7640	-2528	-307	-578	-4360	9200	13720	184	216	-292	-16744	2080	-4000	185	1055	169	-16608	3496	112	162	1282	-111	122	138	1
-32768	-4852	9988	-1193	-2396	-2981	-18688	-3088	-15480	424	-3798	-493	-18576	-9656	9800	-2314	-15	-1306	-2832	9120	13904	450	320	-373	-17040	1592	-4664	470	1209	185	-16416	3464	88	852	1208	-39	122	138	1
-32768	8820	1180	-1008	-2436	-1934	-14808	-2688	-17176	-529	-2958	-767	-18720	-9080	13336	-1248	106	-1270	-3344	10448	14232	540	768	-531	-18520	2080	-4392	567	1351	127	-17520	3752	-248	886	1188	-6	121	138	1
-32768	16628	-4616	-2244	-1976	-281	-11464	-1656	-17192	-2045	-1937	-867	-16704	-11016	12400	-757	-123	-305	-4192	10048	15320	767	1111	-643	-18688	1864	-4768	480	1521	61	-18224	4176	-128	876	1104	-74	118	135	1
-32768	13404	-6292	-2179	-1368	1037	-10368	-2400	-16992	-2792	-442	-930	-15176	-10664	10240	-336	-162	443	-3832	11096	14888	1001	1528	-740	-19248	2320	-4024	308	1718	-66	-17920	5432	-96	949	1012	-104	124	126	1
-32768	6852	-4648	-666	-661	1693	-9280	-2672	-16392	-2545	1031	-319	-13128	-9264	4984	-224	118	342	-3680	11800	14256	1200	1937	-911	-19120	2952	-4520	158	1904	-123	-17848	6048	312	846	830	-168	121	128	1
-31964	-456	-2012	548	-22	1608	-11200	-4696	-16888	-1901	2224	21	-15696	-6856	4344	-137	193	49	-5512	12592	14432	1399	2263	-1205	-18520	1832	-4336	164	2118	-160	-17664	6552	2448	647	565	-233	125	134	1
-15848	-19636	3628	1786	1053	845	-12064	-7792	-17128	-242	2946	312	-16400	-7896	7904	-193	-265	26	-4032	10912	13752	1579	2683	-1524	-19848	-40	-3088	497	2339	-188	-19080	6672	6008	533	32	-173	95	127	1
32767	-14804	17852	2989	2460	752	-32768	-21144	32767	-1542	113	-179	-19520	-6128	-11264	-135	2408	757	-4328	11816	16512	2011	3389	-1938	-24680	-48	-2776	974	2595	-335	-21560	10504	10336	911	-834	24	124	131	1
-32768	6168	32767	1620	4396	1259	-18352	-14200	-23280	9010	2968	272	-31672	-15064	25896	4526	117	-1280	-3920	14944	13376	2439	4402	-2703	-30904	-6200	4104	1662	2798	-561	-25744	2896	16744	633	-1764	139	126	135	1
-15592	-1852	23060	985	1640	1908	-18864	23720	-11952	7030	3951	1805	-20240	12032	7352	5772	1956	712	-8608	17960	15104	2821	5412	-3765	-29264	-5096	3424	2724	2939	-298	-21832	-7040	16272	40	-2190	-595	127	127	1
-21016	-23624	11992	1004	1351	917	-22136	4944	-6904	1202	2395	-367	-18904	23992	-4064	3322	1535	1093	-16840	25616	16848	1745	5725	-4765	-30656	6312	488	2602	3144	-308	-20464	-5824	8216	1024	-1965	-815	136	124	1
-5784	-740	15224	876	334	570	-13000	-3528	-9736	-934	1517	-1204	-9800	8536	-11448	-1612	1743	499	-18152	26504	24752	-260	5625	-5030	-26288	11968	-4232	893	3372	-584	-24264	6136	-7544	3309	-1462	-251	127	119	1
-10256	-7760	13148	819	119	331	-15112	-5688	-9016	-1453	1123	-595	-8856	-1456	-9160	-3427	1381	251	-9336	27856	21760	1949	5241	-4693	-22896	4888	-6824	-466	3869	-1034	-27168	13152	-12128	2536	-1483	771	137	127	1
-9796	-8780	11904	457	42	139	-18448	-5056	-6848	-1083	929	-87	-19576	-8392	-10656	-2784	1739	-597	-10208	26056	17832	2563	1994	-3473	-20280	584	-19176	-1731	2520	-832	-27728	7792	-8672	375	-2548	1040	114	127	1
-7336	-7552	11956	296	-2	57	-17496	-1552	-4152	-1756	720	-128	-18584	-5416	-3024	-919	1698	-443	1384	32680	26528	-2061	-1794	-1309	-18352	2504	-7600	-1001	1677	-766	-32384	3416	-7112	-1580	-3332	988	117	124	1
-7688	-6980	12700	185	37	37	-16072	-2632	-3128	-2688	348	-426	-16952	-104	-584	-380	1354	456	4984	7424	14224	-2410	-3096	-1341	-16536	-2264	-3192	571	241	-235	-25144	2760	-7560	-1825	-2908	1212	68	129	1
-7264	-7356	12716	-14	145	1	-15976	-10464	-1872	-1460	347	-352	-18400	-2152	-2560	-515	1232	899	5624	11392	8800	-1586	-3749	-1172	-10408	1160	-5656	692	-888	-128	-22536	1328	-5816	-1300	-2938	1659	176	130	1
-7528	-8012	11872	-108	173	4	-13504	-11912	-1712	1243	829	-105	-14992	-3424	-1072	-214	1180	984	5816	14568	6384	-2160	-3648	-307	-6984	-1728	-5912	1022	-1520	-207	-19784	1088	-6216	-340	-2706	1344	122	123	1
-7712	-8276	11380	-56	116	37	-14392	-5904	-2768	2343	976	206	-13736	-4064	-720	-70	1202	861	3592	10536	7584	-1963	-3356	783	-9056	-808	-6512	1181	-2303	-102	-18992	2080	-6208	142	-2494	1343	149	124	1
-7552	-8444	11208	61	71	85	-16816	1824	-2152	840	697	76	-15072	-2320	-1160	1	1276	637	512	11536	9488	-930	-3402	1840	-9488	1240	-8152	827	-3045	-51	-18112	3232	-6648	-189	-2393	1338	127	128	1
-7548	-7616	11344	165	68	134	-16248	416	-2320	-1307	347	-185	-15664	504	168	39	1319	568	-1936	13728	10400	-302	-3696	2762	-8992	1200	-8616	654	-3753	0	-16504	3016	-7272	-958	-2245	1040	124	127	1
-7452	-7484	11596	143	97	130	-14864	-5840	-1408	-1931	311	-308	-14760	720	592	80	1493	722	-3584	12232	10640	-33	-3998	3332	-8728	2248	-7392	352	-4447	229	-14192	2032	-7464	-1566	-2175	725	123	128	1
-7988	-8140	11448	95	104	120	-13928	-9104	-112	-1080	526	-184	-14848	-1944	776	-260	1781	746	-6104	12208	11416	261	-4339	3381	-10144	2144	-7536	191	-4925	463	-11880	848	-8176	-1830	-2097	668	124	125	1
-8044	-8140	11724	113	88	127	-13960	-7944	-664	-88	800	-67	-16128	-4704	2096	-558	2170	498	4728	1456	9408	186	-4687	3169	-10704	1424	-8264	-76	-5233	662	-9520	-616	-7600	-1883	-1850	648	124	122	1
-7580	-5364	10532	60	-21	153	-13968	-9600	3920	55	408	-247	-16720	-5328	-1192	-250	2168	392	-9880	13168	14808	280	-4887	3070	-12176	1408	-9728	-403	-5534	771	-8424	-1168	-7176	-1852	-1556	486	123	125	1
-7792	-7340	11948	106	78	194	-16008	-3592	-2528	476	958	98	-17048	-4992	-4528	21	1500	511	-11520	17584	15112	643	-5042	2929	-14296	-576	-9608	-451	-5769	874	-7192	-2560	-7168	-1893	-1302	287	123	127	1
-8100	-7936	12164	83	139	188	-16448	-3520	-3440	-79	966	-44	-18488	-2616	-3688	108	1281	542	-11992	19464	16552	593	-4824	3085	-15368	-1256	-10616	-261	-6001	1092	-6536	-4936	-7568	-1801	-1164	34	123	126	1
-7920	-7752	12184	21	189	235	-16024	-4328	-3144	-531	879	-7	-16552	-720	-3184	50	1294	533	-13400	22416	19608	968	-4378	3605	-18864	-1272	-13216	-201	-6098	1262	-6208	-6680	-6064	-1283	-973	-166	122	126	1
-7888	-7796	12340	-35	248	311	-15384	-5368	-2896	-639	867	-52	-14992	816	-2912	-212	1257	553	-17760	25760	22448	922	-3762	4385	-25784	904	-14432	-251	-6249	1545	-7680	-5920	-1296	-724	-602	-298	112	128	1
-7936	-7328	12424	-70	344	370	-14992	-5656	-2136	-668	927	-43	-16216	-432	-1744	-467	1132	444	-27544	22696	24712	1508	-2933	5091	-26960	3088	-15864	-725	-6085	1379	-9472	664	5520	150	-262	-74	123	128	1
-7728	-9064	12276	-159	507	502	-15992	-5968	-2072	-485	1075	-5	-17832	-1824	-392	-683	1119	237	-32768	20520	21584	1416	-2546	4894	-24808	5904	-17504	-1061	-5213	866	-13376	9040	9736	1182	287	640	125	128	1
-8132	-7460	12948	-113	756	653	-16528	-5336	-1744	-589	1275	-9	-18176	-3520	632	-708	1106	179	-32768	10576	12128	-40	-2182	3855	-18040	4688	-17976	-2362	-3694	464	-21664	14064	22984	1492	348	1016	125	127	1
-8572	-7568	13168	87	1059	725	-17440	-4448	-1648	-663	1499	27	-17872	-3800	224	-696	1068	150	-32768	-4472	4920	924	-1715	1804	-14800	1168	-21696	-2281	-2149	138	-15624	19816	25720	979	304	337	127	126	1
-8748	-6912	13416	126	1411	811	-17368	-4672	-3032	-607	1715	141	-16864	-3088	-240	-628	1062	204	-32768	-4088	-824	782	-1532	-254	-6280	-4000	-22776	118	-278	482	-16656	14856	21608	-1519	-88	615	128	125	1
-8728	-6380	13708	84	1871	821	-16792	-4944	-3576	-417	1927	252	-16352	-3304	-1136	-671	979	364	-32768	592	736	-278	77	-1380	-4880	-1024	-18328	1886	1922	520	-15312	5792	11736	-1642	-257	353	118	125	1
-9136	-7464	13320	-5	2271	969	-17304	-4448	-3776	-246	2144	353	-17776	-2616	-816	-599	697	398	-31880	7720	5800	-1106	1195	-1448	-10912	1744	-19536	2157	3305	-92	-11208	-664	2512	-818	683	-94	128	125	1
-9356	-7256	12804	-164	2664	1207	-17816	-2488	-2744	-501	2307	353	-18472	-2336	1096	-507	267	437	32767	23424	9456	-3683	3747	-3042	-30016	19248	23912	4915	3274	-314	3456	-2328	-6752	376	1303	-583	127	125	1
-9524	-7972	13912	-217	3120	1521	-19120	-3816	-2400	-1116	2422	397	-18624	-5184	3224	-640	-192	308	-24224	3904	4992	1066	4796	-2055	-19208	-11840	-22256	-2872	1681	930	-30488	19040	-720	2967	1998	-64	129	124	1
-10428	-10700	13408	-156	3835	1973	-25680	-5264	-1592	-1280	2589	600	-23680	-7208	7552	-570	-788	-127	-21312	9976	32216	92	3431	-1584	-10184	-12296	-4352	-4175	2240	-777	-24176	4088	15296	-1792	1016	615	135	121	1
-12140	-13896	13828	-118	4735	2851	-28736	-2504	6120	-1838	2668	514	-23600	-4640	11792	-828	-2105	-152	-8944	14912	18952	-247	1670	-1503	-30248	-5416	-7552	-3703	3370	-1095	-19800	-8544	-4936	-1926	1361	-167	128	120	1
-21084	-16940	18780	605	5272	3906	-27488	-4448	728	-2505	2828	396	-21816	4472	11168	-579	-2080	424	-6168	9104	16560	119	1622	-994	-19296	-3400	-6312	-2369	2356	84	-15360	-11304	-5416	-566	853	953	142	121	1
-21096	-15652	20132	1146	5271	4402	-24760	-12168	-8	-2473	2994	375	-22808	2160	408	-933	-1735	150	-10072	17648	13144	-560	380	-613	-9000	2592	-11744	-653	1823	279	-10048	2832	-4376	2303	1484	-319	129	122	1
-19516	-12464	15424	1078	5498	4243	-21632	-9456	-3168	-1524	3040	452	-20960	-3608	-8888	-2053	-1220	-655	-4200	7304	14632	-399	96	-335	-17560	168	-9088	393	1188	745	-16992	15104	-10016	1913	1698	71	126	123	1
-20820	-18880	21884	-341	4718	3195	-20736	-5400	-10928	-365	3104	855	-27280	-2256	-8872	-1036	-1900	-1406	-3896	11576	12960	-375	134	-322	-22376	-192	-6968	1504	1330	277	-18208	7992	-5104	405	1702	219	126	127	1
-32768	-28928	32767	-286	1515	2233	-16712	-2000	-19088	324	2284	819	-26728	2592	-7248	92	-2521	-1568	-3344	10008	13224	-232	46	-124	-17584	616	-4672	2026	1149	256	-16760	1624	-728	-540	1360	-47	126	127	1
-5104	-20888	21364	999	-1775	505	-16936	-1632	-3672	-664	909	323	-27560	3744	-7520	874	-2943	-1451	-3464	10112	13368	-105	63	-107	-15192	3584	-2968	1712	847	362	-15968	2088	144	-304	1311	-268	127	127	1
2156	-7796	12248	139	-2147	123	-12672	-880	-5512	-522	-126	99	-22824	3344	-6520	532	-2627	-1472	-3232	9672	13384	22	90	-104	-15216	4112	-2920	1546	797	359	-15576	1936	1112	-215	1298	-484	123	127	1
800	-12100	9836	-382	-2422	-544	-8672	-1880	-6488	-118	-818	94	-20728	3792	-5320	-76	-2317	-1316	-3656	10144	13168	77	86	-121	-15152	3576	-2880	-945	823	156	-15120	2256	2016	250	1280	-525	124	128	1
364	-11076	8916	-51	-2724	-1178	-6424	248	-6536	-71	-1556	-261	-19032	2008	-5608	-497	-2128	-1238	-3168	10072	12656	38	20	-156	-17944	3272	-3008	-1427	949	-87	-15384	3904	1368	713	1308	-448	127	127	1
-1484	-8120	9336	-333	-2824	-1744	-8016	-592	-5432	-4	-2324	-267	-17024	112	-5552	-98	-2037	-1208	-3632	10200	12704	-53	10	-191	-17232	-88	-3520	-1079	717	13	-15536	3512	1056	926	1345	-277	112	134	1
-5192	-8136	10772	-791	-3088	-2142	-8712	-1264	-7000	429	-2939	-328	-15960	752	-5416	572	-2048	-1211	-3232	9616	12888	-75	44	-190	-15728	-1896	-4576	93	568	203	-14872	3472	320	1045	1261	-320	121	139	1
-5940	-8204	11232	-860	-3168	-2213	-8840	112	-8696	889	-3449	-416	-15984	1232	-4856	1152	-2051	-1102	-3792	9552	12904	-40	90	-167	-15624	1064	-3832	1085	602	322	-14344	3720	-528	910	1232	-414	140	137	1
-8572	-5684	12368	-1429	-4016	-2751	-10808	1032	-6656	838	-3893	-597	-14600	2128	-5360	1649	-2037	-957	-3616	10096	12832	3	99	-146	-16056	4352	-2616	985	621	312	-14832	3712	-1160	749	1252	-493	132	137	1
-9696	-6536	12396	-1482	-4188	-2637	-12800	1136	-7280	771	-4339	-692	-12440	3312	-5920	1607	-1995	-685	-4064	10152	12736	8	93	-126	-15792	4960	-2408	209	657	148	-15200	3848	-240	418	1254	-617	127	137	1
-11700	-5956	14296	-1497	-4203	-2634	-13240	752	-10032	610	-4785	-642	-11192	3056	-6064	1308	-1873	-442	-3392	10120	13232	10	99	-130	-15904	3776	-3248	-238	532	15	-15536	4992	608	112	1382	-691	127	138	1
-13876	-7812	15116	-1653	-4145	-2712	-13728	1208	-9160	413	-5139	-690	-9408	2328	-5696	1273	-1692	-262	-3720	10232	12816	2	96	-117	-15872	2768	-2000	-462	843	46	-15888	6168	1936	-99	1638	-630	128	138	1
-15972	-9728	15472	-1359	-4030	-2716	-15000	768	-9504	348	-5364	-830	-8800	3464	-5232	1292	-1533	-100	-3640	10160	12928	12	104	-138	-16120	2216	-3144	-213	885	37	-15448	7152	1888	-6	1876	-580	126	134	1
-17972	-9976	17384	-1415	-3814	-2929	-16344	384	-10688	484	-5492	-945	-7152	5176	-5056	1212	-1263	92	-3736	10376	12944	-2	119	-171	-16112	2904	-4040	84	952	76	-14976	6360	-1480	159	2057	-466	125	133	1
-20236	-13840	18444	-1438	-3581	-3419	-18248	-1960	-10312	720	-5610	-1032	-6064	5424	-4120	827	-848	214	-2904	10456	12576	-49	114	-225	-16072	3424	-4696	202	956	81	-16328	3840	-3712	-92	1910	-402	125	133	1
-22620	-13748	18492	-960	-3139	-3866	-21840	-4168	-11560	1525	-5599	-1062	-7688	5152	-888	133	-536	234	-2504	10392	12592	-66	184	-316	-16256	2656	-5448	113	912	90	-16680	2168	-3512	-219	1590	-379	124	133	1
-29448	-7804	18612	-987	-2302	-4132	-23992	-6568	-12680	2295	-5340	-638	-11528	-104	4584	-1120	-384	-83	-3304	9088	13312	13	266	-417	-16928	1440	-4600	125	943	96	-16744	2544	-1112	-84	1476	-406	124	134	1
-32768	-6348	15384	-1001	-2024	-3936	-22144	-6304	-13728	2078	-4466	-131	-16120	-6760	9832	-2056	-152	-808	-4288	9056	13536	117	388	-459	-16496	1696	-3816	364	1062	128	-16096	4016	1200	153	1428	-381	124	134	1
-32768	1800	5344	-89	-2473	-3162	-17480	-1560	-17344	1558	-3248	-287	-20584	-9736	17192	-1405	-83	-1269	-3312	9728	14112	246	643	-595	-17488	2832	-2840	364	1279	27	-16944	3928	1952	281	1375	-296	122	135	1
-32768	18504	-4016	-890	-1956	-1552	-13480	-1680	-16760	-152	-2316	-306	-19032	-11312	17208	-698	97	-671	-3136	9920	14424	336	957	-728	-18208	2640	-3992	357	1462	18	-17656	3744	2256	414	1281	-152	119	138	1
-32768	17060	-7376	-1804	-1366	333	-8280	-768	-18616	-1832	-948	-688	-17552	-10160	12712	-269	-288	94	-2288	9944	14528	386	1366	-805	-19144	1760	-4176	302	1725	-122	-18144	5168	1592	820	1176	-157	136	132	1
-32768	11888	-6272	-655	-660	1409	-9480	-3304	-17472	-2476	586	-474	-14840	-7040	8040	-106	-161	402	-4184	9848	15160	596	1784	-938	-19072	1544	-4056	248	1933	-256	-18112	5624	1848	1041	1028	-242	120	132	1
-32768	4552	-3148	292	60	1802	-9872	-4296	-17200	-2002	1960	81	-15112	-4952	10928	-224	-586	130	-4584	11032	14784	820	2176	-1172	-18680	1760	-3552	252	2178	-334	-17920	6256	3128	888	622	-328	125	137	1
952	-32768	2176	2824	2076	2573	-12352	-11336	-6344	-1939	2623	78	-1360	-464	-5552	-831	1362	619	-4032	10824	15752	1055	2583	-1499	-19576	1296	-4112	404	2458	-372	-18384	8672	6200	671	-56	-252	119	133	1
21948	-3156	26932	1334	3433	2637	-32768	-2408	23336	-223	571	-618	-29688	-6568	-5072	-1344	1877	854	-3784	13448	16944	1318	3306	-1935	-26744	3336	-2096	718	2740	-621	-21640	14680	9344	866	-744	135	125	125	1
-32768	-13988	18156	901	4070	1102	-19080	-18632	-16152	4378	2531	449	-30520	-6352	13704	3043	500	-518	-3016	15872	15976	1512	4092	-2848	-31208	-3120	3088	1052	2954	-749	-25232	6656	16624	232	-1672	171	122	142	1
-19684	1280	22100	742	1877	1541	-12768	10928	-11432	3165	3245	668	-17136	6472	-2096	3180	1674	255	-4960	25080	18520	1452	5018	-3989	-32768	-3336	3952	2124	3204	-582	-23256	-4400	17016	-931	-2038	-416	129	123	1
-19272	-15716	10008	770	362	524	-19848	-5416	-9416	1925	2449	-189	-16872	11360	-9296	1216	1440	-197	-10544	26472	20088	561	5648	-4989	-32768	6528	-248	2378	3179	-527	-21760	-5304	9424	-289	-2112	-681	137	124	1
-12464	300	19104	517	45	306	-17472	-2832	-12072	1451	1589	-691	-13344	5472	-9384	-1727	1869	262	-12008	20352	22600	-176	5796	-5402	-25952	10584	-3200	868	3352	-804	-22656	4832	-5968	2297	-1691	-195	128	124	1
-8540	-8052	12888	393	27	134	-17048	1344	-7720	-330	1090	-297	-13000	-3952	-8368	-1507	1714	637	-10816	22360	28336	-359	4749	-5022	-22008	7288	-4448	132	4030	-1012	-25992	10424	-12136	2473	-1503	703	123	125	1
-8120	-7840	12360	133	55	3	-17400	-1960	-6072	-1738	619	-294	-19400	-2648	-7280	-183	1724	318	-29976	32767	32767	270	2171	-3696	-16792	-1160	-24920	-2631	2681	-996	-28792	6784	-8840	784	-2303	1259	131	121	1
-7560	-7952	12092	-4	83	-14	-16592	-2952	-3440	-2246	411	-354	-16384	2000	-1728	186	1537	279	5904	28256	20232	-2180	-1342	-866	-19456	-1352	-4624	-915	1600	-896	-32344	1816	-7112	-1207	-3229	1259	119	123	1
-7180	-7672	12232	-118	131	-27	-16128	-7088	-2320	-1991	280	-523	-16512	16	-2008	-457	1491	477	6512	6624	10432	-2038	-1630	-648	-15312	-2992	-5840	512	58	-424	-24976	2928	-8416	-1818	-3084	1509	114	126	1
-7500	-8028	11908	-205	151	-35	-15400	-11104	-1672	-237	357	-381	-16848	-2600	-3080	-595	1428	875	6672	10648	7712	-932	-2024	92	-6776	176	-6400	556	-786	-389	-21504	1352	-6208	-1235	-2963	1911	91	130	1
-7576	-8872	11332	-196	125	-23	-14096	-8320	-1800	1462	644	-38	-15448	-3160	-2704	-196	1393	993	6792	10968	6552	-1214	-2149	1038	-4352	-1888	-5320	931	-1398	-365	-18984	-56	-6648	-332	-2551	1449	161	127	1
-7472	-8880	10820	-99	104	17	-15712	-2888	-1776	1252	583	60	-14688	-2776	-1624	160	1492	909	3832	8000	7728	-905	-2311	1865	-7408	360	-5264	1008	-2199	-155	-17424	584	-6248	185	-2305	1423	134	125	1
-7328	-8208	11284	-4	91	62	-17208	888	-1592	-416	256	-181	-15528	-1432	-40	359	1694	833	1264	10528	9544	-404	-2667	2482	-8048	2048	-6712	427	-2946	-11	-17328	1920	-6840	-163	-2293	1311	127	127	1
-7188	-7396	11928	-48	150	67	-15480	-2792	232	-1796	52	-305	-15376	-1864	3128	398	1814	848	-1200	11056	10920	-264	-3253	2956	-7328	1832	-7432	-161	-3735	171	-16224	2408	-7072	-833	-2160	1014	122	126	1
-7484	-7988	11332	-103	223	68	-14024	-8544	2152	-1619	313	-177	-14952	-4536	6792	-132	1911	684	-3488	9952	11960	-4	-3895	3107	-8024	1888	-7088	-491	-4364	316	-14560	1616	-7496	-1333	-2129	747	123	123	1
-7692	-9188	10632	-1	173	109	-12400	-10248	4000	-600	792	-15	-17488	-6208	5064	-467	1998	381	-6104	12472	13232	203	-4561	3034	-9576	936	-8360	-579	-4844	448	-11792	296	-7576	-1882	-1874	772	125	126	1
-7544	-9236	10436	166	89	194	-11936	-8688	2760	408	1197	49	-16320	-6640	920	-370	1560	78	-7096	12688	13728	170	-4985	2951	-11296	-312	-9320	-603	-5310	630	-10008	-832	-6856	-2012	-1538	701	124	125	1
-7712	-8796	11344	255	15	264	-14592	-4288	-184	584	1407	55	-18000	-3048	-568	-402	1147	-24	-9288	11360	15744	704	-5139	2843	-13592	-880	-10520	-529	-5713	706	-9768	-1592	-7368	-1974	-1325	482	124	126	1
-6880	-8344	12616	256	22	279	-16656	-3240	-2960	21	1354	35	-14696	-2016	-3088	-576	1119	218	-9696	11672	16048	827	-5167	2822	-14512	-2840	-10456	12	-5952	791	-8992	-2784	-7544	-2132	-1160	203	123	122	1
-8404	-7268	12216	139	78	265	-16744	-3952	-5248	-301	1190	-6	-15152	-1840	-5144	-555	1232	538	-12904	19856	18224	919	-5180	2965	-14856	-4552	-10960	893	-6075	1137	-7504	-6624	-7808	-2066	-1140	-111	124	126	1
-8212	-8200	12152	56	171	249	-16160	-4432	-4888	-517	1086	0	-15448	-192	-6296	-165	1293	666	-13168	20304	20256	920	-4570	3504	-18528	-3616	-12048	1392	-6167	1574	-5520	-6952	-4872	-1689	-835	-436	122	126	1
-8612	-7564	12296	9	212	280	-15296	-4856	-4352	-438	1029	8	-14784	1320	-5904	-28	1139	549	-17216	22872	24144	1296	-3764	4212	-25656	1968	-12744	1095	-6148	1970	-6816	-5544	-312	-1130	-624	-482	120	127	1
-8884	-8112	12116	-65	288	321	-15288	-4608	-3848	-354	1043	17	-15496	792	-3304	-171	1029	347	-27040	21944	26616	1588	-2933	4918	-26360	6584	-13976	-719	-5949	1758	-8584	1184	7208	-74	-193	-13	127	127	1
-8408	-8128	12040	-120	381	468	-15688	-5160	-3136	-384	1077	3	-16464	-1032	-760	-432	1116	256	-32768	20360	22248	1147	-2449	4866	-25136	7856	-14312	-2559	-5053	806	-13712	7456	12544	1208	554	630	119	127	1
-8544	-7308	12744	-168	605	576	-15800	-5008	-2344	-513	1201	-20	-17456	-3736	-264	-512	1129	324	-32768	8752	12408	-313	-1767	3945	-19760	2720	-18648	-4243	-3600	258	-20904	14728	25440	1760	291	887	127	125	1
-8364	-7224	12680	-8	865	664	-17496	-3856	-1976	-641	1404	65	-17632	-4328	-1304	-339	1075	254	-32768	-4016	6128	1104	-1448	1838	-16312	-2128	-21816	-3743	-1730	-288	-16832	15656	26784	990	197	654	126	125	1
-8952	-7092	13368	49	1198	710	-17392	-4600	-3704	-571	1583	160	-16896	-2504	-1648	-207	960	293	-32768	-5184	1304	807	-1395	-589	-5216	-6072	-20296	490	-501	624	-19320	11256	21904	-938	-205	677	127	125	1
-8820	-7376	13328	20	1626	741	-16984	-5408	-3712	-282	1808	277	-17232	-1664	-744	-333	850	362	-32768	-536	3792	63	-167	-1861	-4440	-1848	-17360	2885	1813	699	-16552	3400	13536	-665	-145	271	114	124	1
-8832	-8376	13136	-59	2069	885	-17848	-4984	-3488	-25	2035	376	-18224	-1120	-144	-533	706	305	-31024	7672	6832	-579	412	-2344	-12688	2168	-19288	4099	3080	77	-12176	-1912	3224	413	449	-149	118	124	1
-9156	-7524	12956	-195	2482	1149	-18880	-1720	-3032	-356	2173	359	-19040	-1464	1936	-666	379	355	32767	24880	20088	-2537	2560	-4183	-32768	12200	32767	8683	2298	-16	-15384	984	6136	2174	-345	-535	153	124	1
-8520	-6972	14792	-269	3048	1362	-19608	-3248	-1744	-1159	2268	445	-19768	-5616	3648	-754	14	251	-15112	9424	11792	-555	3182	-3293	-12640	4328	-6568	195	1464	1024	-17512	3256	4040	2468	-458	-439	133	124	1
-9428	-10192	12360	-420	3787	1848	-25080	-3088	-1160	-1270	2471	633	-24000	-6208	8352	-554	-780	9	-12000	21208	17472	141	3835	-1816	-8952	-952	1888	-1813	2405	-616	-17088	17768	4320	2456	1980	360	122	121	1
-10296	-10132	13076	-477	3883	1955	-25592	-2640	-768	-1274	2493	628	-23176	-7816	13848	-975	-2251	-107	-19888	16968	23808	-112	2421	-1488	-23952	8696	-9248	-3442	2969	-943	-13752	2528	-1120	-2233	1249	-321	132	120	1
-16536	-17852	12036	-229	5461	3784	-27488	-2088	4096	-2822	2604	499	-19688	3864	11616	-644	-1855	494	-13416	20432	17544	-1162	820	-683	-20248	7096	-11176	-5024	2398	-291	-19464	-4088	-6000	-2752	668	918	138	118	1
-28164	-5824	19128	114	5540	4215	-24376	-8080	-1288	-3052	2923	539	-22152	2120	4128	-669	-1752	521	-9336	848	21504	-1003	-12	-470	-16800	-3352	-15232	-4846	2179	-517	-15024	-3624	-3032	-159	1177	-331	124	122	1
-23312	-19228	19656	1422	5093	4730	-24024	-14856	608	-2524	2828	803	-21344	-4432	-7320	-2057	-1243	-422	-4240	8224	15760	-599	56	-232	-16840	-10184	-9632	-1664	1486	92	-16576	608	-6000	1	1868	-169	119	121	1
-22860	-16124	20304	862	4581	4077	-20352	-10288	-7824	-420	3118	868	-25816	-4696	-12216	-1205	-1492	-1246	-3496	9456	13720	-257	8	-94	-17352	-6856	-9200	2707	1382	619	-19216	2248	-5544	684	1661	358	126	128	1
-13552	-21656	27896	-1014	2937	2853	-17632	-2344	-22384	1962	2995	1239	-26256	-1272	-8520	206	-2387	-1423	-3624	9664	13968	-159	19	-79	-18152	1856	-6552	4570	1119	836	-15352	1880	-1784	1198	1439	337	127	128	1
-10568	-32248	25224	947	-1529	782	-17928	-2600	-6072	203	1471	825	-26952	2040	-6776	1421	-2898	-1376	-2952	9288	13544	-66	55	-82	-17656	8176	-3096	3729	740	721	-15280	5008	-928	1400	1522	-23	124	127	1
2324	-9092	13168	964	-2363	539	-14264	-816	-3584	-210	116	297	-23376	2248	-6808	1290	-2643	-1304	-3368	9448	13624	19	72	-68	-14856	10040	-1640	1010	602	388	-16112	7032	-1536	990	1380	-527	125	128	1
448	-12096	9956	-45	-2589	-162	-9872	-3800	-6184	326	-486	341	-18352	-1528	-5672	614	-2342	-1297	-3040	9832	13072	47	58	-89	-13792	7296	-2664	-1658	849	-14	-15624	5512	-104	409	1266	-614	126	126	1
-192	-14504	8152	548	-2986	-829	-6040	-448	-5952	191	-1184	44	-19408	2248	-6568	-114	-2086	-1218	-3088	9944	13408	26	34	-122	-17056	4288	-3128	-2726	903	-268	-15408	3944	800	151	1345	-503	127	130	1
-924	-10008	8192	489	-3118	-1486	-7632	-584	-5856	-57	-1926	-39	-17576	-304	-5640	-215	-2057	-1165	-2776	9576	12688	21	38	-127	-18384	-1744	-4488	-2095	607	0	-15200	3048	768	499	1320	-629	124	131	1
-3796	-9732	8644	-107	-3182	-2069	-8952	-3104	-7344	367	-2690	18	-16208	-1768	-5464	505	-2010	-1202	-3496	9912	13224	-32	122	-156	-16856	-3216	-4608	-112	415	268	-15232	3888	32	519	1333	-356	137	135	1
-6960	-10036	9104	-425	-3436	-2487	-8648	-2040	-7888	765	-3243	-44	-15968	-208	-5768	1315	-1939	-1164	-3432	9744	13400	16	141	-134	-15600	648	-3760	1504	514	412	-15024	3752	-448	636	1427	-390	138	137	1
-8504	-9264	9288	-631	-3712	-2803	-9128	-1680	-7688	1087	-3635	-205	-14736	1152	-6128	1794	-1951	-1105	-3504	9880	13256	26	127	-131	-15776	5056	-2424	1653	523	391	-14624	3464	-312	636	1498	-456	132	137	1
-9760	-9592	9476	-734	-3873	-2948	-10504	-2112	-7992	1339	-4022	-377	-12744	2600	-6336	1882	-1949	-900	-3832	9736	12640	18	105	-119	-15560	6496	-2136	685	521	219	-15016	3768	-256	482	1427	-589	121	139	1
-11492	-9252	11028	-861	-3933	-3045	-12080	-2136	-9552	1426	-4461	-360	-11568	3336	-6400	1652	-1852	-656	-3464	9960	12904	23	110	-114	-15576	5368	-1464	-424	633	54	-15232	5104	968	248	1420	-699	108	139	1
-13672	-10304	12052	-1070	-3953	-3179	-12352	-1384	-10200	1399	-4861	-398	-10416	3448	-6328	1450	-1608	-459	-3520	9680	13272	-9	95	-109	-16264	3528	-2672	-684	746	55	-15880	7352	2344	34	1829	-488	121	138	1
-14880	-11612	12848	-1023	-3878	-3241	-13560	-1208	-9832	1260	-5181	-538	-9416	3520	-5992	1353	-1376	-291	-3512	9648	13128	-15	85	-125	-16208	2208	-4040	-368	797	57	-14952	7400	-872	315	2205	-435	124	137	1
-16444	-12340	14580	-1106	-3639	-3317	-15928	-1608	-10064	1183	-5483	-630	-7600	4344	-5928	1304	-1078	-178	-3088	9616	13192	0	97	-144	-16080	1752	-4448	221	822	118	-16376	5504	-4704	114	1986	-308	126	134	1
-16932	-12804	15040	-1133	-3582	-3344	-18712	-2320	-12120	1284	-5728	-752	-7080	6144	-4984	887	-744	-60	-4480	9808	13896	66	87	-193	-16280	2032	-4520	595	814	236	-17048	3072	-3728	-260	1603	-299	126	134	1
-23124	-13856	18324	-995	-2932	-3799	-21840	-3944	-12736	1439	-5890	-758	-7560	5920	-2032	106	-508	74	-2696	9536	13696	176	146	-262	-16752	3392	-4400	505	823	203	-16872	2840	-1896	-294	1450	-386	126	134	1
-32204	-7540	18608	-1515	-2284	-3934	-23808	-4896	-14688	1460	-5639	-548	-10256	-904	4344	-656	-475	-187	-4200	9392	13744	318	359	-450	-17632	2128	-2888	311	885	187	-17648	3200	1096	28	1357	-316	127	135	1
-32768	-5428	13748	-1841	-2048	-3744	-22088	-5472	-16872	560	-4898	-354	-15296	-7656	7184	-1707	-216	-1036	-4456	9640	14584	444	589	-495	-16952	2000	-1928	477	1100	147	-16952	4072	3704	341	1251	-184	126	138	1
-32768	72	4632	-1111	-2220	-3024	-17232	-3800	-18672	-54	-3720	-725	-20944	-5808	14632	-1220	-174	-1423	-3240	10216	14472	474	880	-613	-17080	4808	-2232	369	1362	85	-17064	4072	3280	734	1207	-37	124	135	1
-32768	14152	-4712	-1173	-2139	-1677	-12832	-4304	-20176	-895	-2487	-805	-19968	-6864	16272	-1198	151	-489	-3720	9232	15080	545	1159	-773	-18832	3016	-3640	317	1580	74	-17928	3320	1672	1060	1175	-23	121	139	1
-32768	20996	-9788	-2102	-1174	13	-11184	-792	-19424	-1659	-993	-889	-17544	-13344	12272	-1054	7	214	-4744	9656	15304	676	1542	-841	-19080	1560	-4152	473	1770	-69	-17704	6344	-88	1249	1021	-79	117	131	1
-32768	12880	-7876	-1249	-245	1212	-9416	-2664	-18168	-1986	582	-422	-15152	-11256	8768	-726	128	315	-4032	10336	15536	877	1916	-1012	-18800	2456	-3792	529	1974	-141	-17840	6032	400	1198	774	-155	124	131	1
-32768	5248	-3636	465	218	1676	-8824	-3040	-19056	-1562	2083	-9	-15592	-8920	15296	-369	-858	-141	-5064	9624	18608	1102	2296	-1247	-18400	2840	-3528	511	2221	-224	-17384	6624	2480	899	404	-221	126	133	1
12384	-32768	8596	4521	2050	2083	-13104	-10296	-7984	-1460	3087	178	-2536	-1360	-8696	-1043	1574	615	-4008	10680	15152	1427	2701	-1549	-19512	1144	-3272	474	2486	-314	-18120	8440	6040	741	-293	-178	98	131	1
23088	19000	19416	961	3424	1477	-32768	6320	14304	1830	762	-504	-26136	-5840	-8088	-633	2448	1112	-3088	11872	16864	1742	3460	-1917	-25904	1200	-1040	783	2752	-549	-21480	11856	9504	938	-988	145	121	133	1
-32768	-1988	32767	2173	2727	2110	-11888	-24232	-17912	5800	2582	461	-30968	-11592	17832	3972	309	-733	-1704	14128	16952	2114	4415	-2661	-30368	-7096	3512	1241	2924	-636	-23952	2808	17456	275	-1967	98	127	135	1
-14756	-5396	16792	877	1315	1691	-15296	16992	-12272	5135	3634	851	-16800	5568	512	4395	1638	398	-3936	22000	14440	2466	5517	-3631	-31832	-6576	2696	2473	3104	-476	-22368	-7888	18920	-550	-2464	-492	127	127	1
-9496	-8736	12340	704	1275	764	-26256	1680	-5472	2505	2498	-182	-17080	16832	-7688	2792	1664	264	-14512	27920	20400	1649	6084	-4616	-29288	7776	-2016	2444	3287	-370	-19968	-7616	8336	874	-1991	-798	140	127	1
-28724	-11492	17444	862	19	364	-11600	-1944	-15104	370	1532	-566	-12600	8952	-5088	-982	1536	447	-10816	25448	28528	10	5621	-4860	-25816	12928	1168	1348	3591	-605	-22496	6024	-8936	3505	-1285	-427	131	124	1
-9524	-6756	12224	667	-2	286	-14688	-2376	-8320	-910	1171	-763	-12488	-2008	-7368	-2040	1511	484	-9584	24160	17600	1858	5184	-4385	-23032	6216	-9936	-332	3676	-974	-26248	15032	-11128	3159	-1501	722	120	120	1
-7760	-6044	13168	361	16	115	-19816	-2448	-5768	-1323	953	-196	-18776	-3520	-6768	-1145	1592	-257	-15184	30744	25432	1663	2132	-3135	-17464	3480	-20680	-1853	2552	-857	-27584	10352	-6912	551	-2524	1317	118	126	1
-8396	-8204	11676	187	38	31	-17336	-3576	-3704	-2018	751	-310	-17376	-2032	-2992	-617	1655	-39	2744	26320	24920	-2191	-1771	-1283	-19992	1128	-5104	-803	1698	-799	-32336	4128	-7152	-1661	-3165	1029	119	125	1
-7868	-7700	12104	120	47	36	-15152	-6520	-2952	-2119	494	-440	-15680	-2720	-1864	-669	1466	361	4392	7512	14032	-1966	-3074	-1490	-15504	-976	-4960	187	36	-146	-25320	1888	-6152	-1959	-2880	1275	76	126	1
-7908	-7744	12040	8	97	19	-14584	-10080	-1776	-630	581	-331	-17192	-4784	-2992	-411	1289	751	6064	13888	9168	-1400	-3738	-932	-8616	-592	-5936	436	-806	-212	-21808	128	-4992	-1451	-2922	1639	192	130	1
-7924	-7796	11812	-34	97	29	-14008	-9528	-1712	1343	992	-47	-15608	-3632	-720	166	1140	833	6840	12992	7048	-1973	-3702	152	-6528	-3784	-5192	1234	-1353	-198	-19248	-224	-5472	-326	-2556	1250	135	128	1
-7816	-7924	11428	0	72	51	-15728	-4192	-2496	1810	1037	143	-14536	-2712	-928	261	1175	777	4704	8760	7032	-1330	-3494	1255	-9624	-2144	-6256	1684	-2209	-22	-18872	944	-5280	331	-2286	1275	128	126	1
-7668	-7984	11412	82	64	83	-16672	176	-2448	473	754	-25	-15456	-1240	-1088	89	1290	626	2808	10576	7792	-414	-3349	2154	-9712	104	-7056	1476	-3097	45	-17928	2240	-6408	-33	-2297	1222	125	125	1
-7928	-7480	11748	128	70	95	-15208	-1920	-2760	-955	543	-203	-15488	184	-840	-58	1329	563	-448	11992	10120	-98	-3379	2793	-8176	1672	-6944	1182	-3895	289	-15848	2368	-6752	-726	-2134	926	123	127	1
-7740	-7472	11792	99	91	85	-14936	-6120	-1544	-1211	547	-214	-14904	504	-800	-123	1413	690	-3408	11136	12168	107	-3794	3165	-7672	2744	-6840	550	-4423	618	-13624	1264	-7368	-1229	-2060	652	124	129	1
-7912	-8492	10836	103	109	130	-14432	-6824	-1736	-667	668	-144	-14904	344	-536	-158	1428	701	-5504	11912	13672	450	-4438	3250	-9560	2104	-7768	-104	-4787	759	-11008	896	-7232	-1541	-1882	553	123	125	1
-7932	-7108	11944	70	103	108	-14800	-5608	-1872	-245	780	-125	-16040	-2408	632	-309	1919	651	-6272	12712	14352	488	-4874	3122	-11400	528	-7384	-408	-5179	884	-9360	-64	-6400	-1734	-1570	520	123	123	1
-7844	-7376	11756	41	133	95	-15008	-5032	-1720	-65	846	-88	-15912	-2976	240	-229	2214	502	-8240	12000	15296	730	-5047	2926	-13792	272	-8344	-614	-5543	1006	-8192	-1048	-6824	-1782	-1319	299	124	126	1
-8296	-7500	11856	45	155	118	-15272	-5144	-2832	-77	875	-99	-12288	-4248	-3840	-228	1985	476	-9736	16504	15456	915	-4868	2734	-15528	-1776	-8512	-681	-5764	947	-7512	-1856	-7408	-2030	-1151	140	124	127	1
-8284	-7200	12412	22	189	133	-15464	-4840	-3520	-360	873	-75	-17888	-3456	-4448	-180	1610	475	-11392	20160	18744	627	-4342	2886	-16560	-3720	-10992	-247	-5879	1066	-6912	-4432	-6664	-2128	-1101	31	124	127	1
-7880	-7308	12232	-30	265	161	-15912	-4544	-3240	-581	860	-42	-17592	-1696	-3984	-52	1413	397	-14776	25440	22856	793	-4007	3743	-21048	-1872	-14976	-1	-6007	1311	-7000	-5616	-3984	-1848	-1007	-164	123	126	1
-7892	-7064	12388	-151	413	186	-16256	-4448	-2920	-659	893	-14	-16504	-560	-2656	-183	1196	436	-20384	22936	24424	883	-3549	4858	-25752	1832	-14872	-92	-6257	1481	-7624	-4392	616	-1316	-748	-138	120	126	1
-7904	-7684	12460	-245	551	214	-15728	-5248	-2024	-568	1007	8	-16928	-1120	-240	-301	1061	467	-29968	19360	23040	1352	-2876	5219	-24704	4912	-16672	-1013	-5763	1146	-9656	3320	7568	-269	-255	284	127	126	1
-8396	-7876	11932	-208	718	312	-15448	-5808	-1680	-443	1178	28	-16816	-2600	528	-462	1054	389	-32768	19696	17752	687	-2398	4588	-22416	6848	-16136	-2086	-4636	507	-15680	9800	11344	941	500	958	117	125	1
-8580	-8892	11556	-267	846	459	-15064	-6992	-2488	-418	1410	60	-15856	-3104	104	-608	1083	252	-32768	8008	8552	-391	-1916	3207	-18472	5544	-19848	-3264	-3400	179	-20408	9760	22816	1121	326	918	124	125	1
-9236	-8096	12472	-32	1024	699	-16800	-6032	-3320	-374	1564	22	-16552	-2136	-1160	-692	1075	113	-32768	-3896	3016	847	-1535	1157	-14360	-328	-24456	-2517	-1666	87	-17344	12096	24320	641	19	314	125	125	1
-8832	-6980	13312	-14	1373	783	-17808	-2976	-4208	-614	1702	134	-17696	-2192	-1400	-760	1080	108	-32768	-1144	752	893	-1046	-583	-6576	-3208	-21888	681	-244	709	-17384	10848	17720	-117	98	404	115	125	1
-9252	-7840	13736	-50	1823	857	-18088	-3408	-3680	-773	1819	255	-18192	-2080	-864	-885	897	182	-32768	2248	2792	-151	117	-1490	-4472	-168	-19304	2467	1940	574	-15096	4760	9736	-89	86	217	102	124	1
-9032	-7904	13016	-149	2287	1052	-18336	-4400	-3256	-704	2026	278	-18920	-2360	448	-805	606	354	-29952	7544	4344	-679	879	-1822	-11600	4152	-17952	3212	3009	-27	-11192	3056	5432	524	479	13	124	124	1
-9328	-7368	12744	-286	2721	1285	-18416	-3080	-2520	-739	2263	340	-18504	-3344	2296	-627	195	459	-28376	8400	5040	-684	979	-1836	-32768	19032	32767	7262	2451	-75	3520	2192	-9280	1285	1676	-835	139	123	1
-9604	-8048	13844	-332	3261	1564	-19464	-4168	-2360	-1079	2438	436	-18528	-6880	4240	-642	-330	342	-26216	10480	10512	433	4557	-2406	-32768	16464	32767	9804	1715	-310	-32768	27880	8864	2088	1976	557	130	123	1
-8964	-10676	13264	-395	4160	2076	-26368	-4936	-4136	-951	2653	669	-24768	-10064	10520	-607	-1286	-191	-18256	6472	27904	-232	2922	-1698	-9256	-14088	-4664	-4715	2761	-599	-21744	6744	12616	-2692	1474	-419	156	120	1
-12116	-14912	12752	-636	5211	3061	-30576	-1936	6968	-2102	2581	493	-21776	-2320	8024	-616	-1912	54	-7248	15792	15792	-205	1844	-1279	-11640	-7248	-12944	-4785	3775	-567	-21048	-8856	-9000	-3771	1272	-145	128	120	1
-13212	-15352	12804	-555	5421	3255	-25512	-7416	1264	-3331	2838	476	-22208	7528	11112	142	-2164	478	-32768	32767	31904	-794	1084	-936	-16040	4032	-14040	-3854	2615	-116	-13656	-10888	1064	-1192	410	851	127	122	1
-23440	-14552	17988	743	4983	4808	-24344	-13320	-2688	-2829	3023	294	-20720	1712	-2440	-1085	-1591	81	-6920	15640	15024	-708	570	-637	-10368	-1016	-11616	-2237	1612	229	-10336	3232	-7264	1777	2030	-508	126	122	1
-19584	-17924	17484	1045	4783	4965	-21496	-10768	-2328	-1840	3019	493	-23128	-3424	-11000	-1745	-1437	-864	-4992	11920	15304	-745	219	-370	-19392	-5584	-9256	432	1159	616	-19056	11464	-8240	1312	1918	549	127	125	1
-8952	-13260	17844	-1010	4054	3377	-19432	-3152	-11872	319	3013	766	-27296	-1448	-9176	-1065	-2053	-1487	-4056	11016	13840	-608	138	-180	-21272	-832	-6272	2683	1299	381	-18232	5792	-3088	634	1681	611	130	127	1
-30052	-32768	32632	-839	234	1475	-16888	-3096	-20552	999	2018	810	-27672	2512	-6672	38	-2634	-1650	-5056	6848	16576	-428	8	-84	-17008	1592	-5264	2626	1135	452	-16936	1696	1696	-46	1421	260	127	129	1
-44	-19288	16244	1454	-2179	328	-16768	-392	-968	-980	391	124	-27496	3424	-8320	754	-2902	-1473	-3544	8816	14344	-165	67	-140	-16104	2768	-2872	1766	862	447	-16656	1024	920	-57	1284	-334	126	129	1
3368	-5640	11028	67	-2279	-168	-11696	-1480	-6344	-550	-535	1	-22544	2656	-7288	253	-2500	-1564	-3240	8696	13768	40	114	-139	-15736	4816	-2272	291	730	341	-15608	2200	216	28	1228	-700	126	129	1
988	-12444	8684	-583	-2525	-839	-6992	-1376	-6312	-129	-1221	-51	-19896	3240	-6072	-251	-2127	-1595	-3136	9472	13616	109	126	-170	-14992	4792	-2728	-1284	921	179	-14360	3144	560	424	1210	-647	125	125	1
-240	-10544	8616	-170	-2951	-1407	-5176	1360	-5728	-267	-1934	-550	-19392	3472	-6072	-361	-2103	-1519	-3112	9600	13168	72	90	-231	-17256	2784	-3704	-1745	941	6	-15480	4008	560	601	1244	-406	91	133	1
-2204	-7236	9988	-609	-3100	-1939	-7232	24	-5856	-169	-2619	-594	-15088	448	-5680	-437	-1942	-1152	-3416	9808	13184	6	78	-264	-17200	-1152	-4600	-1211	713	80	-16208	2872	320	629	1321	-284	136	136	1
-6416	-8384	11560	-1092	-3398	-2383	-8640	-1168	-6880	405	-3248	-621	-14360	-328	-4800	354	-1903	-1267	-3792	9648	13144	-58	113	-273	-16272	-2720	-4968	394	565	304	-15288	2024	544	924	1300	-209	145	138	1
-8912	-7720	12236	-1352	-3885	-2774	-9528	1512	-7552	783	-3701	-733	-14576	832	-4536	1227	-1850	-1122	-4168	9912	13728	-43	156	-228	-15832	1312	-3824	1476	548	502	-14544	2696	96	1236	1306	-233	122	136	1
-8644	-6044	11744	-1511	-4112	-2870	-11832	1248	-5688	774	-4096	-941	-13136	2232	-5072	1808	-1827	-808	-4152	9944	13216	-17	148	-202	-15328	5712	-3104	1122	589	433	-15032	3648	-1248	1318	1299	-310	123	135	1
-10076	-6360	13536	-1572	-4078	-2829	-12048	1272	-6112	814	-4155	-984	-11336	3352	-6280	1566	-1839	-489	-4048	9872	12920	-22	154	-196	-15616	5816	-3112	86	659	219	-13368	3152	-2304	842	1326	-432	112	136	1
-13272	-7820	15428	-1671	-4092	-2954	-13880	1464	-8624	877	-4877	-910	-10232	2880	-6168	1256	-1753	-193	-4480	9392	13192	-34	121	-181	-16016	3880	-3512	-438	685	93	-15808	5504	-304	750	1373	-728	124	136	1
-14656	-10568	15772	-1253	-4057	-3158	-14440	824	-8352	930	-5111	-1017	-9456	1840	-5960	1271	-1571	-96	-4800	9840	13576	-40	105	-142	-15992	2384	-3488	-230	610	77	-16072	7032	-216	366	1579	-741	125	134	1
-15360	-9884	17004	-997	-3726	-3385	-16944	-224	-9128	1254	-5315	-911	-8224	1328	-6312	1266	-1287	-4	-6992	10768	13584	-36	95	-160	-15832	2344	-4176	36	878	154	-15184	7680	-648	97	1749	-519	127	133	1
-17744	-11828	18812	-1136	-3359	-3654	-18856	-1144	-10144	1500	-5541	-833	-6496	3304	-5768	1561	-932	61	-3792	9736	13024	-11	129	-190	-15704	3208	-4656	304	919	122	-15208	6128	-1992	-76	1738	-337	127	133	1
-22996	-15704	21568	-935	-3143	-4083	-21072	-3152	-12064	1852	-5664	-856	-7024	4960	-3944	1454	-552	162	-4392	10120	13480	-10	166	-263	-16064	3208	-4688	356	925	143	-15352	3048	-3232	-185	1634	-278	127	133	1
-28604	-12756	21512	-843	-2832	-4625	-24544	-4616	-12432	2486	-5601	-648	-10848	3784	1616	818	-456	124	-3544	9880	14128	38	258	-397	-16728	2600	-5000	323	932	166	-16808	1832	-1960	-129	1588	-313	125	134	1
-32768	-7384	17716	-1017	-2313	-4602	-25704	-6240	-14320	2186	-5139	-129	-14816	-1776	9848	-539	-480	-317	-6320	8328	14632	194	407	-523	-17504	1216	-4304	427	992	181	-17344	2528	912	184	1592	-386	124	134	1
-32768	-4896	7660	-511	-2402	-3912	-19512	-4976	-15264	1648	-4031	-189	-20528	-6304	17048	-1029	-490	-1051	-4344	7184	14576	301	592	-587	-17096	2360	-3480	596	1147	150	-16800	4672	2344	522	1488	-354	123	138	1
-32768	13036	-3308	-608	-2083	-2358	-13768	-2928	-18472	947	-2717	-487	-19880	-2936	22320	-903	-19	-783	-3704	9976	14864	305	907	-689	-18448	2464	-3544	608	1352	127	-17560	5008	2240	639	1369	-156	123	142	1
-32768	22184	-6600	-2410	-1264	-314	-10184	-960	-18680	-1314	-1507	-514	-17936	-8848	15744	-1296	-189	-190	-4112	8704	15760	410	1262	-774	-18536	1896	-3624	464	1617	-40	-17592	5720	2448	698	1233	-87	118	135	1
-32768	10228	-7264	-1201	-1066	1309	-7840	-3016	-18376	-3186	-24	-685	-16024	-8392	8584	-1848	-10	204	-4152	9936	15016	565	1667	-901	-18712	3432	-3656	258	1870	-198	-17680	6728	1968	990	1149	-214	121	133	1
-32768	6396	-6172	355	-494	2109	-9520	-5040	-17792	-3136	1384	-170	-13248	-8200	3560	-1218	279	-126	-4792	10256	14912	735	2079	-1116	-18848	2408	-3552	60	2099	-278	-18048	7184	2416	877	899	-315	123	133	1
-30860	-1852	-3148	413	178	2067	-11440	-8032	-17200	-2096	2464	58	-10144	-7776	3432	-1160	-704	-455	-4192	10288	15400	967	2484	-1399	-19216	560	-3272	243	2384	-330	-18160	7720	5032	565	371	-339	126	129	1
32767	-27028	15544	4174	2315	1925	-22720	-13232	32767	-3399	1648	-84	-7056	-1088	-15632	-1395	1641	953	-4096	8616	17592	1398	3001	-1770	-21632	200	-5168	541	2659	-405	-19024	11528	8536	627	-461	-211	124	129	1
-16584	-40	5356	789	5394	1316	-32768	-7160	1544	3500	2223	-221	-30880	-12328	12416	737	1181	314	-2648	14392	15984	1799	3890	-2342	-30416	-3616	1864	1147	2914	-662	-22216	8232	12552	359	-1005	118	125	139	1
-28784	1116	30944	1885	3799	1841	-9480	-13000	-7008	5672	2919	1172	-25992	-4312	9608	4202	1148	-475	-6768	18624	18760	2075	4742	-3280	-29896	-5016	2616	2182	3035	-547	-23768	-2496	15816	-435	-1872	-382	127	126	1
-32768	-18056	23764	1731	64	1561	-18688	-4624	-18608	4064	3472	303	-23832	6568	2360	3432	1138	3	-9416	24000	20584	928	5586	-4178	-32768	4144	2792	2955	3231	-543	-21664	-3528	14128	-119	-1953	-772	124	119	1
-8872	-1252	21120	1120	89	570	-25880	904	-11408	4125	2815	-755	-15536	13920	-14976	1090	1864	-193	-7800	25952	20800	363	5953	-4721	-32544	12896	1704	1621	3255	-934	-24016	3888	-128	1672	-1610	-382	132	122	1
-9104	-6600	12040	665	-15	250	-13792	5272	-10448	1478	1809	-65	-9328	8008	-8040	-1283	1568	467	-13592	30248	22648	-411	5923	-5145	-22256	11392	-3264	-99	3784	-1024	-24576	10544	-11216	2126	-1374	285	123	124	1
-9472	-7976	12556	391	-9	116	-12632	4288	-9296	-1945	963	-563	-15520	-624	-9688	-1718	1642	475	-6952	16056	30272	249	3801	-3408	-21472	2544	-18160	-2274	3512	-1075	-27656	8216	-8696	731	-2115	870	140	123	1
-8628	-7600	12820	347	5	103	-20200	-712	-6400	-4155	442	-478	-18280	-1608	-5912	-1365	1640	-109	-456	32767	29400	-408	-870	-1532	-20144	3240	-11288	-2314	2206	-1015	-32472	2712	-5648	-887	-2804	1078	113	123	1
-7936	-7624	11976	6	120	40	-18800	-9520	-4456	-4253	281	-603	-16840	-3480	-3736	-957	1609	-53	6616	12288	15296	-2505	-2092	-1215	-19608	-1952	-2728	308	567	-366	-29008	416	-8768	-1801	-3229	1178	121	126	1
-7648	-7916	12088	-63	157	52	-14032	-15608	-1392	-1073	503	-447	-17208	-4064	-3672	-703	1487	555	6568	9256	10496	-1103	-2750	-673	-10392	-2688	-7232	435	-594	-147	-23936	-992	-6520	-1343	-3093	1613	119	127	1
-8072	-8176	11524	-78	145	54	-11976	-10384	-3072	1978	897	-72	-16688	-4072	-3416	-223	1355	1127	8248	13560	6120	-1165	-2870	443	-4992	-3384	-5632	1427	-1155	-222	-21168	-1808	-6232	-287	-2928	1516	130	131	1
-7880	-8328	11388	-3	114	89	-14936	-3872	-3472	2926	965	250	-14288	-2816	-1752	256	1344	1022	6096	7920	6760	-973	-2765	1566	-7248	-2296	-6240	1985	-1989	-17	-18600	-200	-6440	662	-2609	1289	121	124	1
-8196	-8276	11320	102	95	94	-19016	1728	-3192	1270	719	-19	-14992	-1616	-1976	426	1463	792	2904	9320	8936	-83	-2792	2429	-8976	568	-6464	1636	-2950	267	-17832	728	-7272	807	-2465	1340	129	125	1
-7916	-7564	11948	86	112	89	-16664	232	-2248	-862	359	-286	-16536	744	-160	500	1477	771	64	10608	10792	146	-3124	2970	-7632	1560	-7328	1030	-3754	525	-16176	1512	-7512	263	-2292	1211	125	124	1
-8064	-7432	11876	-4	165	71	-14784	-4376	-1488	-1801	309	-317	-15080	856	400	435	1638	908	-376	10344	11056	159	-3196	3027	-6680	2232	-7080	236	-4354	748	-14240	1872	-7632	-678	-2170	862	125	127	1
-7632	-7452	11640	-22	156	85	-14232	-7792	-416	-1453	444	-195	-14432	-1768	1504	159	1982	850	-5368	10224	13472	835	-4535	3019	-8048	1000	-7376	-317	-4774	917	-12400	272	-6984	-1337	-2092	665	125	127	1
-8140	-7744	11568	3	151	94	-13384	-8696	-368	-431	651	-142	-15216	-4000	2712	-422	2266	598	-7336	12056	14904	783	-5222	2712	-10016	-488	-7848	-397	-5155	1139	-9528	-1472	-7560	-1735	-1778	565	125	124	1
-8072	-8136	10996	75	110	123	-13896	-6488	-592	305	894	-129	-16728	-3320	-24	-547	2269	262	-8664	10552	16040	976	-5590	2433	-12928	-1128	-9464	-531	-5609	1351	-8192	-2368	-7568	-1570	-1374	310	125	124	1
-5648	-7896	12244	121	58	187	-13952	-6128	-584	354	927	-119	-17144	-2080	-3832	-371	1598	187	-10552	15296	16096	1368	-5619	2280	-15384	-3336	-8264	-143	-5845	1302	-8024	-2152	-7928	-1622	-1267	142	126	125	1
-8212	-7820	11888	113	66	215	-15656	-3656	-3496	-267	979	-117	-18280	-2568	-4096	-373	1196	257	-9936	18088	17800	994	-4917	2524	-16472	-4848	-10608	550	-5967	1451	-7152	-2792	-8552	-1611	-1194	52	125	125	1
-8248	-7692	12004	79	88	239	-16184	-4648	-3416	-726	896	-143	-15664	-3600	-4224	-425	1237	397	-11608	21016	22024	1307	-4044	3206	-20952	-3480	-14672	904	-6134	1646	-6424	-3208	-7192	-1579	-1074	-108	126	125	1
-7792	-7516	12104	-28	208	313	-15552	-6432	-3888	-726	895	-87	-15272	-2192	-4704	-368	1312	493	-17120	24904	25968	1102	-3216	4126	-26256	1752	-14304	661	-6334	1980	-7176	-2712	-3848	-1302	-702	-225	124	127	1
-8116	-7764	12420	-132	437	414	-16344	-5576	-3616	-492	967	-46	-16816	-488	-3616	-210	1143	410	-28920	21432	29984	1537	-2570	4938	-26328	6328	-16128	-1005	-6180	1785	-10080	2056	5088	-695	-463	115	125	126	1
-8460	-7768	12436	-188	652	469	-16448	-4360	-2192	-490	1091	4	-18088	-512	-896	-257	1078	276	-32768	21472	24960	1416	-2610	5068	-26416	7640	-18216	-2684	-5224	698	-16208	10632	10464	570	24	789	109	126	1
-8120	-7924	12876	-136	876	520	-15912	-5400	-1296	-574	1233	42	-17784	-3336	1168	-556	1074	302	-32768	12456	10248	-241	-2392	4178	-18584	4480	-18520	-3762	-3466	141	-20872	10160	20720	1057	348	1080	113	126	1
-8612	-8432	12700	-91	1185	626	-17040	-5456	-2192	-552	1483	88	-17856	-3792	696	-584	1051	225	-32768	-8392	104	582	-1398	2258	-14560	-1480	-26224	-3706	-2091	235	-17360	10688	30352	133	24	752	125	124	1
-8888	-7420	13052	-61	1509	722	-17752	-4376	-3200	-598	1684	163	-16680	-2400	-984	-507	1029	189	-32768	-2112	-720	1818	-816	57	-7272	-4520	-23160	-165	-68	470	-17736	10344	19568	-252	225	642	59	124	1
-8976	-6812	13128	-76	1892	767	-16840	-4864	-3648	-487	1848	302	-16312	-2840	-1936	-541	971	302	-32768	1496	2368	15	366	-1033	-4784	536	-19280	2366	1761	716	-16648	5504	10288	207	102	334	127	124	1
-9448	-8068	12444	-184	2263	909	-17032	-4696	-3560	-312	2025	384	-17384	-2408	-1776	-583	722	423	-32112	6480	6248	-753	1168	-1248	-9872	1144	-19528	2934	3053	263	-10616	5352	2120	394	513	304	138	123	1
-9900	-8032	11160	-200	2570	1179	-17160	-3792	-2952	-502	2169	379	-17248	-2320	272	-538	365	540	32767	25280	13528	-3408	3618	-2517	-32768	20144	32767	8783	2434	-254	-2792	6192	-2816	1074	716	-404	152	124	1
-9988	-8176	12812	-164	2966	1413	-17424	-6520	-2376	-983	2281	463	-17168	-6632	1024	-533	136	324	-24320	7296	21848	-407	4587	-2243	-8488	10016	-6424	-3386	1414	712	-27632	31544	6240	1638	2184	415	131	125	1
-11140	-11296	11052	-133	3541	1899	-23016	-5960	-2416	-784	2487	656	-23352	-8040	4832	-372	-529	-88	-16200	3760	23920	90	3064	-1817	-8824	-13208	-7200	-5029	3346	-939	-23776	1184	10096	-3433	1666	-667	142	121	1
-12764	-13676	13776	-368	4288	2753	-27448	-5224	3120	-1524	2520	617	-23672	-7704	9960	-690	-2017	-185	-9856	19640	12480	-410	1681	-1298	-26208	776	-6976	-3941	3298	-1065	-19976	-13104	-6552	-4411	784	-14	127	121	1
-19180	-15928	12976	271	4661	3877	-25904	-3320	1832	-2676	2628	383	-21104	4000	8944	-348	-1938	210	-7304	5288	18672	-408	1335	-856	-18600	1600	-8120	-4237	2288	36	-14328	-8640	-5456	-924	623	616	128	120	1
-20124	-14824	18440	852	4481	4427	-24016	-9744	-1344	-2819	2919	322	-21456	6888	2664	-40	-1734	245	-9144	12784	17416	-631	643	-701	-12816	-2008	-13608	-2300	1571	256	-12216	-736	-3104	1365	1621	-311	124	123	1
-27216	-13852	22580	927	4545	4441	-22576	-9256	-2384	-1952	2828	398	-20528	1480	-6296	-1871	-1295	-403	-5640	11640	15504	-403	176	-265	-17512	-6184	-10480	324	1172	464	-18408	7344	-9808	1922	2046	383	126	125	1
-14180	-13936	17724	197	4674	3956	-19128	-5144	-7864	-941	2936	648	-23944	-152	-10192	-1877	-1410	-1131	-3680	10040	13480	-268	61	-105	-21368	-1368	-6992	2821	1241	550	-17368	6384	-4968	1829	1757	641	129	126	1
-18972	-19184	22304	-993	3109	2987	-17672	-16	-20728	457	2628	804	-26848	2424	-9016	-914	-2131	-1489	-3160	9544	13528	-225	56	-85	-17696	1440	-4872	3500	914	656	-16528	5336	-928	957	1496	264	126	128	1
-12692	-30808	24228	755	-1145	477	-17376	-1240	-7368	-678	1258	465	-25944	4192	-7496	205	-2698	-1534	-3256	9272	13624	-101	70	-91	-15584	5664	-2272	2843	643	623	-15880	5392	104	377	1334	-334	125	127	1
2272	-7224	12636	784	-1866	148	-14936	680	-4336	-1203	6	-23	-23816	3256	-7560	359	-2706	-1525	-3080	9184	13728	20	94	-85	-15504	8264	-808	555	551	396	-15344	5400	-136	-151	1161	-745	124	129	1
364	-8040	10280	-639	-1969	-443	-10008	-2024	-7144	-466	-609	47	-20424	2448	-6040	-41	-2433	-1463	-3136	9872	13360	42	75	-99	-14400	6880	-2040	-1692	825	78	-14664	4056	880	-373	1109	-738	128	130	1
-8	-11736	9084	-417	-2371	-1031	-5560	-192	-5936	-189	-1209	-281	-19208	3216	-6376	-267	-2092	-1234	-3080	9936	12944	-9	48	-135	-17120	3592	-3296	-2636	885	-218	-15400	3504	1072	-263	1194	-477	125	126	1
-844	-7472	9792	-384	-2628	-1585	-7016	1096	-5680	-34	-1874	-490	-16976	2168	-5936	-428	-2065	-1130	-2816	10288	12584	-92	64	-165	-17920	-1864	-4312	-1958	571	-21	-15304	2344	-64	85	1345	-240	111	133	1
-3240	-6924	10972	-887	-2893	-2058	-8944	-672	-7264	509	-2555	-471	-15400	136	-5944	94	-2040	-1145	-3120	10200	13016	-108	68	-164	-16728	-3824	-4960	76	444	249	-15360	1920	312	454	1326	-234	133	136	1
-6504	-7412	11608	-1149	-3326	-2312	-9264	648	-6872	671	-3190	-524	-15752	608	-5264	766	-2025	-1123	-3912	9272	13480	-40	133	-133	-15648	528	-3328	1563	468	457	-14192	2576	-248	636	1344	-285	145	136	1
-8400	-6940	12088	-1307	-3841	-2426	-9688	808	-7320	664	-3653	-658	-15248	1472	-5448	1322	-2017	-957	-3768	9736	13200	30	132	-103	-15768	4840	-2784	1477	503	410	-14568	2824	-680	700	1445	-368	123	137	1
-9548	-7224	12384	-1474	-4150	-2480	-11520	80	-7944	739	-4065	-903	-13416	2632	-6136	1540	-2009	-744	-3448	9952	13456	57	130	-94	-16136	5680	-2632	500	460	231	-15584	4640	-136	407	1524	-623	112	137	1
-11560	-7440	13228	-1660	-4237	-2615	-13656	-32	-9376	682	-4515	-901	-12160	2888	-6704	1423	-2005	-581	-3760	9672	13232	55	118	-90	-15904	4840	-1456	-520	615	123	-15832	5936	2448	136	1778	-601	121	137	1
-13876	-8920	13264	-1857	-4214	-2803	-13768	256	-8544	412	-4906	-899	-10840	2032	-6272	1252	-1847	-446	-3856	9040	13216	74	128	-87	-16072	2288	-2448	-702	645	96	-15824	7080	1088	185	2131	-486	122	137	1
-14924	-11012	13148	-1533	-3938	-2991	-14560	272	-10296	470	-5101	-1069	-9984	2144	-6264	1156	-1608	-300	-3376	9984	13200	94	131	-87	-15792	2440	-2800	-358	779	82	-15944	7568	-1744	-25	2034	-480	124	136	1
-16048	-11208	15072	-1365	-3394	-3283	-17128	-544	-9920	692	-5302	-1058	-8776	2624	-5696	1105	-1358	-223	-4016	9832	13040	101	141	-93	-15568	3032	-3232	26	865	113	-16760	6480	-1728	-535	1582	-352	125	134	1
-20164	-14296	18368	-1471	-3007	-3838	-18336	-2144	-11440	1089	-5411	-1062	-6792	3840	-4416	1056	-952	-122	-3824	9888	13232	94	151	-123	-16312	3064	-3264	321	913	136	-16000	4528	-1184	-681	1449	-311	127	135	1
-22964	-16576	18896	-877	-2842	-4425	-20984	-4360	-10720	1754	-5434	-1070	-7816	4152	-2496	657	-533	15	-3816	10176	14008	129	178	-151	-16264	3720	-3280	219	967	107	-16072	3400	-1000	-348	1381	-359	126	134	1
-27024	-10896	18452	-599	-2240	-4696	-23952	-5920	-11336	2673	-5270	-755	-10784	1552	2744	-386	-307	-22	-3064	10416	13584	168	253	-243	-16680	3504	-3320	12	1074	87	-16984	2928	-48	-131	1261	-304	126	135	1
-32768	-7092	15928	-778	-1641	-4522	-24160	-7208	-12816	2703	-4739	-91	-14416	-4560	9384	-1692	-227	-523	-2400	9560	14800	176	472	-447	-17440	2264	-3064	102	1166	135	-17400	2456	1536	49	1186	-201	125	140	1
-32768	-4264	6936	-276	-1867	-3798	-18360	-2848	-15536	2112	-3595	-86	-18640	-9856	16120	-1287	-206	-1257	-3928	9768	14576	336	782	-529	-17696	952	-3200	420	1357	100	-17136	2576	2352	384	1080	-86	127	140	1
-32768	11476	-1680	-570	-1835	-2355	-14304	-2472	-18536	666	-2564	-420	-18936	-10632	18704	-323	-119	-864	-2632	9392	13640	497	1045	-603	-17640	2240	-3968	542	1568	54	-16528	1616	2360	915	1173	15	126	142	1
-32768	16764	-7428	-1922	-1412	-467	-8968	-1144	-16752	-1584	-1458	-662	-16824	-11024	13128	-87	-151	-60	-3920	9856	14904	664	1310	-687	-17720	3888	-4088	416	1736	-27	-16592	4088	800	1387	1174	-52	120	139	1
-32768	9576	-7968	-803	-956	1002	-8240	-3688	-17048	-2572	25	-710	-14880	-8728	8944	-249	21	363	-3568	11888	14040	633	1627	-878	-18392	4320	-3136	249	1894	-143	-18072	7120	-448	1460	994	-62	123	129	1
-32768	4860	-6216	694	-215	1469	-9040	-5024	-16384	-2169	1498	-94	-13000	-8992	3664	-2	295	-24	-4064	11696	14408	687	1965	-1178	-18920	2984	-3832	288	2110	-169	-18320	7712	728	1230	614	-63	122	126	1
-29520	-860	-2972	1080	578	1322	-10824	-8176	-15720	-1010	2545	260	-11688	-8480	3472	133	-814	-403	-4992	11424	13864	847	2325	-1483	-18712	952	-4584	565	2364	-222	-18000	7400	4032	836	-63	-85	123	134	1
-15392	-32768	11752	3808	2757	2219	-14016	-18632	16584	-944	2521	205	-3280	-472	-11336	-461	1877	909	-4328	10360	15704	1198	2773	-1855	-21032	936	-4624	933	2597	-289	-18384	9672	9224	789	-1102	34	127	130	1
-8936	13080	14700	497	4473	1753	-32768	4272	-856	5601	2265	-238	-32768	-13096	9016	745	1288	248	-3632	15952	16128	1279	3609	-2354	-21712	1504	-4472	1020	2629	-314	-20704	10520	9760	1013	-1003	329	126	135	1
-28960	-5516	30148	726	2813	1924	-16024	-9648	-9456	6509	3100	1421	-26856	4800	11968	4610	1088	-267	-2096	15328	18568	1520	4353	-3422	-30480	-3960	2568	1604	2767	-466	-25608	-888	14544	-220	-1736	15	130	124	1
-18388	-14992	14568	293	1988	1505	-15232	12080	-8208	1315	2948	117	-19824	18112	-2888	2791	1470	879	-7648	24760	20528	1482	5315	-4370	-32224	-1784	3136	2528	3107	-441	-21720	-4896	14400	-661	-2003	-408	132	133	1
-15840	-3748	15624	947	411	501	-18240	-8944	-9400	-717	2039	-1075	-12112	9488	-13440	-440	1587	69	-15784	23640	25544	560	5598	-4898	-29192	8344	-3224	1854	3494	-487	-21040	-6440	14368	-478	-2015	-428	137	124	1
-10496	-11012	9292	702	146	394	-14360	-6240	-9928	-62	1499	-571	-7536	-240	-9304	-2986	1837	261	-10576	21960	19272	116	5432	-4808	-23664	9824	712	833	3504	-929	-23784	5560	-10528	2920	-1329	103	136	127	1
-9456	-7876	13256	499	12	182	-16080	-2656	-8048	-64	1222	-317	-14584	-10408	-9960	-2149	1645	42	-13680	25376	22128	45	4586	-4189	-20072	5160	-15648	-757	3443	-456	-27384	7040	-9720	2088	-1931	934	140	127	1
-8000	-8200	12068	351	-4	77	-17920	-2392	-4160	-1001	996	-14	-21104	-5832	-6136	-84	1692	-27	-20072	32767	32767	185	430	-1950	-14888	256	-23160	-2794	2232	-708	-29504	3608	-5112	634	-2722	1113	109	124	1
-7492	-7556	12064	264	13	104	-16632	-2000	-3496	-1762	858	-160	-16624	856	-720	817	1490	298	9000	16592	16448	-1479	-1975	-761	-21360	-2840	72	384	976	-372	-30280	2048	-6304	-960	-3263	948	61	126	1
-7836	-7620	12228	128	75	73	-15720	-7368	-2832	-1260	674	-354	-16880	272	-1688	158	1356	557	6056	6880	11424	-880	-2476	-884	-13080	-3432	-5608	1085	-493	363	-24176	24	-6216	-980	-3013	1389	140	130	1
-7952	-7940	11924	37	112	75	-14768	-9376	-2584	356	794	-322	-16368	-1736	-1880	-90	1274	906	7272	12344	8688	-433	-2929	39	-5408	-2192	-6040	1249	-1118	293	-21376	-1440	-5576	-348	-2892	1530	160	124	1
-7688	-7936	11760	21	107	94	-14640	-7184	-3832	1684	1042	49	-16288	-1992	-1848	-55	1260	923	6784	9864	7880	-693	-2898	1121	-5792	-3864	-4856	1799	-1647	375	-18864	-1336	-6240	662	-2491	1208	137	125	1
-7888	-8260	11136	82	90	119	-16248	-1752	-3328	1452	932	154	-15448	-1456	-1848	49	1207	680	3296	8568	9832	-58	-2889	2118	-9712	-760	-5872	1643	-2531	607	-17752	56	-6216	986	-2228	1242	125	127	1
-7784	-8076	11512	143	78	138	-16608	640	-3240	-126	675	-152	-16400	-96	-1760	-120	1341	570	-72	12064	12480	227	-3169	3034	-8976	1000	-6984	845	-3340	668	-16808	1112	-6848	650	-2232	1149	124	126	1
-7924	-7356	11904	91	105	116	-15928	-2576	-2672	-1304	474	-288	-15784	1448	-520	-235	1359	703	-2000	9056	13280	285	-3675	3585	-7896	320	-6568	183	-4151	911	-14768	2056	-6456	-208	-2134	881	124	126	1
-8048	-7628	11544	36	138	109	-14688	-6400	-2032	-1275	535	-218	-14504	176	-1024	-219	1508	826	-4232	8800	13032	624	-4082	3608	-9080	272	-5016	-239	-4555	1063	-12536	1624	-6496	-1013	-2025	687	124	123	1
-8144	-7624	11712	35	128	125	-14352	-7152	-2152	-496	688	-127	-15216	-1864	-1368	-143	1686	815	-5776	10816	14640	552	-4316	3394	-10912	296	-7616	-938	-4854	1173	-9544	-200	-6624	-1531	-1894	545	124	124	1
-8136	-7492	11704	38	127	132	-14608	-5288	-2712	109	782	-100	-16128	-2424	264	98	1999	667	-8448	11264	17544	590	-4585	3303	-12728	-112	-9088	-1503	-5195	1117	-8272	-1040	-6808	-1482	-1617	373	123	124	1
-8124	-7692	11472	33	129	137	-14632	-5040	-2864	145	792	-99	-15576	-1944	592	-94	2412	502	-9296	12312	18816	729	-4839	3207	-15240	-1544	-8984	-1767	-5543	851	-7880	-576	-6496	-1539	-1358	168	123	125	1
-8244	-7336	11688	22	134	151	-15200	-3688	-4120	-306	808	-105	-15600	-2440	-4328	-359	2121	522	-11072	14152	21216	888	-4914	3155	-16736	-4704	-10568	-1254	-5836	655	-6744	-400	-7024	-1805	-1164	56	124	127	1
-7992	-7816	11628	12	133	186	-14992	-4856	-3744	-550	776	-107	-17808	-3088	-5976	-200	1487	627	-11408	17288	22880	855	-4771	3257	-19144	-6208	-12600	165	-6130	662	-5744	-1488	-7256	-1818	-938	-103	125	129	1
-8048	-7940	11936	-9	174	275	-15856	-5376	-4232	-494	784	-92	-17432	-1144	-5736	185	1382	538	-16112	23064	25696	648	-4437	3545	-23304	-3920	-14752	1629	-6313	1026	-6328	-1664	-3792	-1795	-624	-184	125	126	1
-8252	-6732	12444	-110	326	343	-16408	-4608	-4392	-463	795	-64	-16016	-544	-3760	156	1257	544	-25824	22072	28112	660	-4010	4214	-26752	2656	-16520	1662	-6298	1231	-9408	-272	3216	-1329	-392	-18	122	126	1
-8052	-8092	12392	-143	570	403	-16960	-4520	-2072	-564	879	-9	-17992	-1000	-392	6	1146	477	-32768	21472	20584	438	-3657	4006	-25952	8968	-16560	515	-5632	1010	-13616	6336	11368	-51	-113	514	131	126	1
-8572	-8200	12316	-79	774	523	-16008	-5144	-568	-617	1096	20	-18680	-2032	2696	-122	1088	299	-32768	14800	9448	-291	-3011	2909	-18344	9256	-16648	-1864	-4174	664	-21872	7896	20472	628	-1	1022	119	126	1
-8428	-7920	13372	-55	1058	620	-16360	-5096	-1432	-503	1388	86	-18136	-3136	1912	-455	1065	222	-32768	1144	1584	496	-1950	1743	-12936	3632	-22680	-3494	-2106	360	-19336	3856	28624	934	-220	297	112	126	1
-8700	-7728	13068	-51	1468	728	-18896	-3432	-2816	-465	1618	192	-18240	-1800	152	-638	1112	180	-32768	-3264	1488	1806	-921	294	-12880	-2488	-23736	-1750	-525	100	-15568	10296	21112	1281	118	195	126	124	1
-8848	-6932	13640	-63	1934	815	-18616	-3728	-3816	-514	1789	304	-17928	-1784	-632	-634	1078	323	-32768	2264	2456	293	8	-946	-5584	-1888	-20936	1317	1311	470	-16512	7784	11416	1478	265	337	122	124	1
-9000	-7636	13316	-154	2387	956	-18224	-4000	-2968	-448	1965	418	-18544	-2712	-328	-708	824	439	-27816	6784	5008	-507	701	-1706	-7392	832	-19856	2932	2641	301	-12424	6816	2816	1120	591	502	139	125	1
-9484	-8136	12612	-284	2805	1197	-17824	-2384	-2432	-603	2163	473	-18608	-3584	1024	-730	328	501	22000	3560	23512	-3292	3450	-3353	-32768	9936	32767	9219	1823	326	-15840	14928	7840	1748	-574	106	140	123	1
-9864	-7960	13960	-227	3332	1488	-19432	-5136	-1328	-1071	2310	622	-19616	-7680	2784	-618	-22	311	-18960	17808	20072	-766	3681	-2036	-13224	12792	-2760	-1721	1084	303	-19568	25616	14616	47	1899	842	129	122	1
-10292	-10500	12388	-242	3984	2058	-24416	-5120	-1752	-929	2512	784	-23896	-10496	8752	-276	-1167	51	-15896	11672	25880	209	2947	-1507	-15568	-4800	-12136	-3550	3624	-1218	-20952	2728	1536	-1681	2128	-1359	127	122	1
-12652	-14372	11812	-117	5043	2998	-28720	-4184	7288	-1834	2588	843	-21432	-8000	10000	-595	-2193	-62	-5472	16000	11288	-123	1664	-1388	-18496	3848	-5600	-3572	3083	-833	-14840	-15056	-10576	-4636	867	-404	136	119	1
-21392	-16368	16456	636	5073	4126	-25536	-5920	2512	-2384	2923	700	-21560	3032	10448	340	-2083	378	-10952	13296	18296	-263	1713	-1020	-14920	3640	-11048	-4864	2080	-276	-13112	-7728	-568	-1323	334	230	126	119	1
-25868	-21200	23124	1534	4606	4561	-25152	-14096	520	-2366	3155	814	-21384	4328	10600	538	-2041	397	-14544	22008	21112	-571	574	-783	-13752	-2880	-15496	-3701	1594	95	-15952	-2312	-832	1020	1101	-197	122	126	1
-16276	-17816	19452	1435	4813	4376	-21728	-11008	-1608	-906	3223	927	-20392	-1424	-10504	-778	-1312	-729	-5832	8240	17952	-432	68	-273	-14560	-2848	-15744	-3238	1563	147	-20952	3264	-9552	2208	2074	413	117	125	1
-18400	-10904	19968	471	4284	3536	-18240	-4832	-14904	1423	3346	1120	-27024	-200	-9152	-433	-1782	-1312	-4008	10488	13912	-323	3	-153	-20048	-2144	-7296	3582	1349	657	-17320	4208	-4272	2713	1529	946	125	129	1
-32768	-32768	32767	219	608	1085	-18608	-216	-18608	1943	2470	1115	-27312	2352	-6712	402	-2475	-1427	-3560	9904	13712	-210	-12	-97	-18992	-1384	-7536	3823	1301	673	-15952	6176	184	2292	1341	307	122	130	1
508	-17944	19600	1495	-1887	293	-20176	-248	480	-464	591	529	-27896	2880	-8144	1064	-2812	-1234	-3184	9224	13872	-68	8	-85	-15608	6096	-2600	3318	631	671	-16008	7424	-96	1526	1306	-444	122	128	1
404	-7780	15128	73	-2425	59	-13544	-1472	-6624	-169	-250	252	-23528	3960	-6880	950	-2572	-1188	-3208	9840	12888	26	31	-76	-16136	8664	-1928	1160	603	415	-14312	8928	-1048	755	1076	-857	127	129	1
-744	-14920	12020	-185	-3128	-586	-9744	-744	-5848	-142	-985	87	-21088	3992	-5792	224	-2434	-1258	-3176	10272	12688	21	34	-84	-15216	8136	-1912	-1013	916	-17	-13008	8432	288	125	1096	-724	127	130	1
-112	-11228	10164	272	-3568	-1109	-7400	2248	-5120	-667	-1850	-237	-18920	1800	-5528	-292	-2295	-1090	-2904	10272	12456	-32	16	-104	-16240	5528	-2664	-2503	1007	-335	-14928	5400	1144	-217	1213	-585	128	133	1
-1552	-8228	9936	-251	-3544	-1603	-9320	-1168	-5904	-769	-2724	-130	-17568	-768	-6240	-18	-2274	-1181	-3424	10368	12920	-144	-16	-149	-16472	-488	-4136	-2304	754	-258	-15704	2776	1696	-254	1335	-474	116	137	1
-5848	-9104	11492	-749	-3632	-2178	-9872	-848	-7848	54	-3333	-210	-16784	-256	-5912	965	-2253	-1159	-3136	9792	13440	-219	26	-181	-16896	-4528	-5240	-513	547	57	-14656	1608	1496	264	1404	-302	126	139	1
-7732	-7924	12516	-965	-3951	-2639	-10256	352	-7648	493	-3796	-321	-15808	1840	-6840	1692	-2180	-984	-3568	9576	13336	-212	87	-143	-16144	-1136	-4064	1213	540	313	-14712	2984	568	683	1424	-375	146	137	1
-8684	-7496	12652	-1180	-4170	-2800	-11416	64	-6464	793	-4181	-504	-13488	4424	-6776	1738	-2207	-820	-3336	9128	13240	-96	107	-113	-16032	3488	-2600	1558	602	347	-15088	3384	272	720	1395	-476	141	139	1
-10168	-7592	13820	-1284	-4252	-2837	-13288	-16	-8888	1180	-4623	-525	-11504	5640	-6368	1246	-2162	-535	-3464	9592	13472	-30	129	-99	-15768	6040	-2392	672	648	180	-15304	3464	48	538	1425	-787	122	136	1
-10540	-7388	14076	-1328	-4248	-2838	-14384	336	-8728	1173	-5098	-609	-10280	4728	-5824	933	-1996	-274	-3472	9808	13352	-18	122	-91	-15768	6480	-1608	-377	625	26	-15256	5496	-128	283	1485	-875	124	138	1
-14768	-10744	13684	-1255	-3933	-2743	-14720	1032	-9352	1262	-5352	-784	-9136	4592	-5552	870	-1831	-87	-3576	9896	13232	-21	123	-94	-15800	3528	-3264	-1133	863	-48	-14920	5456	-96	6	1570	-791	125	139	1
-18408	-11632	16664	-1313	-3571	-2955	-16808	1104	-12616	1212	-5425	-820	-8136	5208	-5368	874	-1651	-3	-4192	9912	13432	-14	128	-106	-16648	1256	-4520	-921	895	33	-15200	5640	-584	-85	1608	-770	127	135	1
-21328	-16284	18264	-1285	-3373	-3609	-18888	-1464	-11976	1121	-5626	-937	-6792	6024	-4512	969	-1358	146	-3656	9208	13696	50	161	-130	-16384	360	-5736	-211	914	69	-15648	4064	-784	-669	2171	-534	128	135	1
-23268	-13848	18304	-932	-3048	-4176	-20688	-3184	-13112	1512	-5753	-983	-6560	5912	-2680	693	-991	242	-3512	9728	13728	128	216	-187	-16784	1424	-5296	479	870	166	-16152	3272	-2184	-260	2281	-571	129	135	1
-29552	-6692	19604	-1358	-2345	-4514	-21440	-5344	-14168	2028	-5549	-676	-8768	304	2672	-212	-744	8	-3712	10240	13560	214	298	-281	-17488	2944	-4120	820	859	248	-17616	3776	-2752	-73	2171	-607	126	135	1
-32768	-2308	17256	-1912	-2122	-4350	-22336	-5400	-15424	1672	-4888	-201	-11872	-6584	6008	-1608	-359	-574	-3160	10080	14368	280	506	-414	-16720	3904	-2128	754	986	149	-17408	4816	1080	-148	1694	-485	125	137	1
-32768	-2152	8200	-723	-2383	-3438	-18784	-2920	-16864	599	-3857	-147	-16648	-8448	13072	-1977	-53	-1004	-2520	10384	14616	386	726	-591	-16624	5704	-1832	340	1297	19	-17160	5504	4032	64	1378	-256	124	138	1
-32768	12900	-1628	-387	-2418	-1857	-13512	-5224	-20040	-630	-2853	-325	-19440	-10224	17272	-1711	86	-1024	-3632	11544	14952	396	1002	-808	-18928	3560	-2528	138	1581	-7	-18592	4520	3176	548	1312	8	118	139	1
-32768	17388	-10880	-1512	-1998	125	-8936	-3664	-19664	-1918	-1458	-798	-20136	-10096	12088	-1029	137	-451	-4168	10312	15968	412	1386	-958	-19640	1440	-3872	480	1803	-72	-18664	4608	1896	1204	1135	-91	119	135	1
-32768	11560	-10684	-999	-1027	1424	-7600	-6200	-18440	-2013	339	-673	-15608	-9560	7640	-901	122	284	-4384	10160	15616	557	1851	-1129	-19536	1104	-4064	746	2023	-208	-17920	5680	1440	1527	990	-188	128	138	1
-32768	2696	-7968	615	62	1549	-9112	-4984	-19528	-1121	1931	-39	-13760	-9640	4704	-141	320	-64	-3952	10968	15528	654	2310	-1343	-19312	2056	-3416	759	2256	-282	-17952	6664	2624	1386	694	-292	126	132	1
-22212	-10212	-3036	1503	1410	1220	-11712	-7776	-16928	-576	2927	137	-760	-6096	-6272	536	1129	-145	-4392	11088	15376	942	2762	-1664	-19928	1088	-3816	608	2526	-387	-17968	8056	4312	1052	175	-297	114	132	1
32767	1800	20708	1093	4297	1750	-32768	8744	27920	1079	455	-459	-28048	-10672	-3896	-576	1549	410	-3352	10496	17984	1183	3416	-2041	-24872	3024	-3920	563	2804	-665	-21832	14560	7608	976	-476	-113	122	124	1
-32768	-1464	32767	1178	4209	1828	-17040	-18832	-15704	4849	2779	290	-32768	-1672	18960	4700	375	-74	-3288	15968	16192	1480	4176	-2898	-32272	-3144	4496	821	2929	-827	-24704	9600	13808	456	-1375	74	129	118	1
-21528	-5448	21692	437	2076	2088	-13840	15880	-11216	3399	3681	775	-18280	15112	-72	4209	1624	1074	-6536	22104	19064	1179	4986	-3903	-30944	-1872	3216	2023	3149	-597	-23064	-88	15752	-673	-1982	-363	130	130	1
-18544	-22064	7444	994	561	602	-20280	-6248	-13048	1169	2612	-418	-15568	17512	-10624	1618	1422	153	-11552	23768	22480	520	5628	-4811	-32768	6440	2376	2264	3321	-702	-21240	-2744	11376	-706	-2002	-426	137	128	1
-16732	-3344	19676	649	18	452	-15192	-5688	-13656	1111	1742	-1102	-8912	5224	-10720	-2821	1881	-52	-13264	26128	25344	-1007	5872	-5042	-26944	10992	2160	1127	3402	-869	-21352	2696	-4952	1222	-1718	-7	127	119	1
-9228	-6984	13244	546	-62	218	-17104	64	-9136	159	1238	-404	-11856	-5328	-9888	-3342	1771	-23	-9104	23360	23736	-296	5461	-4663	-21440	5768	-6056	-362	3875	-1008	-25800	8200	-11344	1670	-1492	581	122	128	1
-8336	-7396	12628	278	5	56	-17704	104	-6320	-1455	842	-300	-21168	-6784	-7576	-1596	1889	-188	-28536	32767	32767	669	2910	-3732	-17568	704	-24112	-2553	2774	-1015	-28400	4720	-7272	334	-2337	986	127	126	1
-7452	-7512	12392	122	55	29	-17256	-792	-3720	-2775	585	-405	-17992	688	-1616	-249	1636	274	5920	31360	24824	-1975	-1546	-851	-20944	-384	-2920	-972	1631	-789	-32192	8	-5576	-1030	-3222	979	117	125	1
-7520	-7380	12224	-3	111	35	-16480	-5256	-3072	-3402	353	-530	-16632	-1296	-1800	-761	1528	394	7432	6776	13696	-1726	-2175	-772	-17296	-3712	-3680	686	31	-80	-25224	-8	-6936	-1349	-3026	1195	118	128	1
-7740	-7764	12140	-101	141	22	-15328	-13760	-1536	-1648	427	-409	-16464	-5784	-2808	-938	1412	813	7672	13544	10016	-427	-2757	24	-8768	-2248	-6184	913	-891	-18	-22584	-744	-5288	-864	-2972	1656	0	127	1
-7600	-8224	11420	-102	130	45	-12768	-12216	-1280	1426	908	-107	-13952	-5784	-1872	-175	1292	1009	8200	12648	8024	-881	-2776	1204	-6640	-4168	-4888	1686	-1431	26	-20696	-1864	-5136	231	-2790	1440	166	127	1
-7732	-8276	11348	1	93	83	-13944	-6136	-2912	2603	1103	204	-13976	-4648	-1256	321	1214	888	4864	8016	9152	-311	-2681	2211	-10016	-848	-5544	1745	-2296	357	-19064	64	-6040	923	-2524	1372	137	126	1
-7680	-8480	11160	13	87	89	-16960	992	-2520	1581	919	103	-15800	-1928	-1080	575	1364	716	1208	10328	11752	309	-2853	2903	-10008	1320	-6976	988	-3226	479	-18216	1536	-6504	668	-2434	1401	130	127	1
-7640	-7196	12352	157	52	128	-17152	1664	-2224	-591	620	-204	-16208	688	80	686	1478	758	-1192	9416	13512	431	-3382	3250	-7896	1008	-6712	287	-4016	651	-16544	1560	-7560	-157	-2267	1190	126	127	1
-7748	-7044	12188	49	125	107	-15240	-3792	-1616	-1546	540	-252	-14608	928	688	861	1613	910	-4088	8400	14504	567	-4117	3111	-7672	592	-6088	-304	-4516	974	-14536	616	-7696	-1054	-2249	855	124	130	1
-7944	-7992	11624	35	131	132	-14424	-7512	-960	-1105	651	-189	-14424	-1640	1312	432	2006	922	-5376	9432	15808	576	-4912	2738	-9944	-616	-7408	-729	-4839	1108	-11520	-1048	-8352	-1431	-2163	593	124	123	1
-8040	-7628	11904	68	112	150	-14248	-7280	-1304	-204	819	-112	-16016	-3240	2424	-259	2458	711	-6520	9568	17440	786	-5377	2459	-12560	-2248	-9064	-928	-5373	1121	-8640	-2048	-8544	-1412	-1800	434	125	125	1
-8104	-7608	11888	90	102	173	-14736	-5536	-1440	329	963	-54	-17312	-2416	-856	-345	2491	512	-8544	12368	18472	1114	-5631	2395	-14800	-3488	-9296	-533	-5890	1063	-7824	-1928	-8752	-1318	-1443	345	124	126	1
-7900	-7516	12184	87	101	231	-15808	-3648	-2328	311	1021	-70	-17128	-1216	-4088	-219	1741	438	-9480	16080	18176	1047	-5337	2527	-15608	-6176	-9984	427	-6155	1121	-6824	-2880	-9504	-1388	-1212	241	123	127	1
-7860	-7432	12448	20	179	259	-16184	-2560	-3488	-297	1014	-99	-17840	-1880	-3680	89	1315	434	-11280	18864	21424	1135	-4545	3065	-16736	-4952	-13336	1203	-6268	1409	-5216	-4360	-8992	-1447	-1107	68	124	127	1
-7876	-7468	12576	-39	285	324	-16392	-4080	-3416	-660	951	-92	-16384	-2624	-3360	9	1428	482	-16240	26480	25600	1274	-4054	4087	-22800	-768	-16544	1260	-6346	1807	-5496	-3960	-5416	-1410	-908	-171	124	127	1
-8276	-7280	12532	-96	423	364	-15816	-5408	-2896	-683	998	-57	-15960	-920	-3376	-169	1406	576	-24496	21496	27640	1401	-3498	5012	-27024	6264	-14328	54	-6466	1941	-6520	-1544	136	-1082	-725	-148	124	127	1
-8384	-8344	12560	-166	609	485	-15912	-6440	-1808	-482	1118	7	-17288	-768	-832	-199	1174	472	-32768	19752	26904	1514	-2938	4926	-26352	8280	-18512	-2190	-5881	1340	-11024	6592	8536	-456	-401	427	127	127	1
-9604	-6716	13016	4	839	589	-16376	-4056	-1392	-425	1345	-13	-18920	-2336	1872	-186	1049	220	-32768	15872	16912	74	-2690	4063	-21944	6824	-18280	-3888	-4197	361	-20992	12176	19288	487	-7	1054	127	125	1
-8492	-6768	13368	0	1197	611	-17304	-3336	-2368	-578	1630	120	-17056	-1840	1664	-570	1074	118	-32768	-3032	1864	105	-1645	2574	-15944	-1784	-26304	-4376	-2530	-72	-21144	10968	30384	1094	157	500	122	125	1
-8624	-7216	13720	-39	1648	696	-17456	-3504	-2472	-574	1662	133	-16848	184	-48	-737	1124	201	-32768	-5064	1144	1369	-1207	222	-9432	-5632	-26136	-831	-650	87	-19304	12384	24592	57	341	605	58	126	1
-8684	-6828	13632	-60	2098	771	-18056	-4504	-3864	-432	1969	267	-17048	-1648	-1752	-698	1101	386	-32768	-3528	3112	1	-195	-1261	-2240	-1048	-21704	2197	1271	737	-16896	7080	13872	357	-176	225	122	124	1
-8992	-7996	13112	-146	2511	957	-17672	-4784	-3136	-312	2129	388	-17664	-3792	-1264	-803	814	412	4776	32767	6024	-1724	1403	-1885	-8496	1208	-21600	3256	3013	116	-11544	2624	4880	290	207	121	150	124	1
-9348	-8008	12396	-249	2903	1245	-17984	-2400	-2520	-557	2307	400	-18392	-4136	432	-756	373	442	30800	13008	18616	-2220	3174	-3883	-32768	8800	32767	8685	2140	-104	-10136	6136	6640	1643	-301	-221	163	125	1
-9964	-8316	14312	-184	3454	1553	-20224	-5288	-1344	-1089	2415	564	-20200	-7520	2688	-515	-2	304	-20680	18096	20896	122	4124	-2130	-12280	9096	-8264	-1280	1382	322	-25104	22376	6920	2417	1941	-295	138	123	1
-10352	-10260	12620	-350	4162	2196	-26056	-3528	-1344	-1061	2600	681	-25656	-9224	9872	-232	-1402	89	-18624	7776	28792	232	2879	-1833	-15728	-1712	-13928	-2250	3901	-961	-19088	-4800	-816	-2215	1326	-1038	157	120	1
-13244	-16268	12396	-305	5290	3148	-29600	-976	8728	-2343	2596	609	-20896	-1608	10672	-313	-2477	69	-7856	19696	12968	-109	1802	-1649	-19584	2760	-7240	-2897	3091	-647	-15136	-10552	-8696	-2164	523	433	121	121	1
-25744	-16076	16216	561	5255	4192	-24912	-7192	672	-3163	2963	520	-21104	6520	12960	168	-2343	466	-8552	15336	16648	-359	1426	-1134	-15024	5408	-9776	-3554	2351	-145	-13760	-1456	-3944	800	780	686	122	122	1
-26528	-15180	19968	1273	5111	4519	-24880	-12384	1264	-2788	3061	552	-20656	584	-2168	-1260	-1511	33	-7896	6800	19120	-932	325	-292	-14480	1312	-11664	-2501	1580	276	-17248	8528	-9952	2063	1820	-226	124	124	1
-23868	-12736	19996	337	5470	3957	-21440	-10536	-8136	-798	3454	990	-22312	-3976	-10480	-1995	-1163	-877	-5552	14544	12744	-513	75	-182	-22056	-5760	-10384	-860	1386	-5	-17936	9352	-8464	906	1944	282	126	127	1
-18384	-25444	22388	-110	4253	3582	-21136	-4504	-12432	145	3197	1154	-28016	-984	-9304	-708	-1966	-1388	-4032	10424	13128	-338	14	-84	-19104	-3936	-7616	2171	1339	251	-18160	3864	-2984	-5	1583	155	122	127	1
-32768	-28700	32767	607	543	1412	-17256	-1536	-19536	1469	2296	811	-26424	2464	-7400	327	-2456	-1366	-3376	9432	14232	-207	32	-95	-15664	-144	-5112	3287	1065	468	-17072	856	144	-356	1474	59	135	129	1
-976	-20340	19408	1019	-1703	223	-16752	-1608	-88	-204	753	622	-27376	2528	-7528	1154	-2848	-1380	-3368	8832	13768	-78	56	-90	-15512	4400	-3592	3161	704	624	-14928	3288	400	-96	1322	-426	124	129	1
1740	-8776	13112	252	-2212	193	-12552	-1552	-5224	-202	-188	193	-22704	3640	-6776	806	-2545	-1484	-3704	9744	13464	45	89	-91	-16296	8992	-976	1023	610	406	-15080	4040	440	-33	1295	-661	124	127	1
324	-13500	10680	-224	-2700	-551	-7568	-2664	-6272	253	-903	117	-20176	3696	-5496	69	-2282	-1224	-3408	9880	13032	69	82	-125	-15088	7496	-2696	-1479	860	52	-15600	3632	832	200	1273	-682	127	128	1
-416	-13404	9396	230	-3157	-1214	-6848	-208	-6032	122	-1601	-270	-19128	2016	-6856	-508	-2137	-1135	-3384	9896	12816	36	51	-153	-16704	5224	-3000	-2649	939	-341	-15968	3568	1240	460	1336	-455	124	130	1
-2792	-9976	9908	-17	-3434	-1865	-9112	-624	-6568	-23	-2478	-229	-17504	-592	-6032	-234	-2144	-1216	-3624	10432	12800	-62	78	-182	-17456	-1584	-4632	-2180	645	-109	-15208	2016	1080	1008	1319	-384	115	134	1
-5060	-9232	9424	-573	-3687	-2367	-8776	-2048	-6800	263	-3214	-236	-16008	-544	-5696	650	-2031	-1287	-3632	9544	13216	-102	106	-180	-16744	-3736	-5568	32	428	223	-14968	3184	416	1338	1430	-180	131	136	1
-7564	-8972	9928	-843	-3937	-2629	-8656	-1384	-7320	714	-3669	-375	-15160	1448	-5952	1266	-2017	-1137	-3648	9472	13456	-33	119	-160	-15808	120	-3800	1723	498	386	-14760	3632	-368	1412	1407	-362	143	137	1
-9184	-8348	10836	-1039	-4188	-2784	-9696	-1688	-7528	1112	-4091	-578	-13304	2816	-6696	1620	-1995	-974	-4256	9664	13448	14	114	-145	-15848	4664	-2816	1876	537	420	-14928	3872	-728	1101	1412	-591	135	137	1
-10452	-8504	11904	-1262	-4320	-2837	-11960	-592	-8680	1341	-4535	-665	-11392	3360	-6728	1458	-1915	-710	-3992	10000	13072	13	118	-121	-15792	7144	-2104	907	605	186	-14696	5592	-48	739	1450	-872	127	137	1
-12836	-9180	13552	-1515	-4357	-2936	-13536	-528	-9336	1032	-5023	-583	-10160	2968	-7488	1254	-1731	-488	-3904	9864	13328	-10	109	-127	-15632	6448	-2080	-395	692	-15	-15240	7144	808	213	1559	-915	126	139	1
-14912	-11528	14788	-1529	-4319	-3125	-13928	32	-10000	861	-5399	-726	-9088	2936	-7224	1223	-1495	-290	-3624	9840	12880	-15	118	-151	-15800	3136	-3464	-866	794	-15	-15376	8456	1792	-176	1932	-740	125	137	1
-16348	-12624	15772	-1447	-4091	-3330	-16136	-184	-9688	617	-5706	-851	-8312	3824	-7048	1257	-1285	-120	-3744	10120	13680	-10	139	-179	-16352	1888	-4272	-539	882	-18	-14968	7240	-736	-55	2259	-638	124	135	1
-18924	-14560	17688	-1500	-3722	-3574	-19040	-1544	-10840	533	-5984	-1021	-7000	5432	-6072	1360	-979	17	-3792	9592	13288	18	177	-224	-16328	1232	-4560	121	907	61	-16968	4352	-4296	-231	1976	-466	126	134	1
-22312	-17280	18968	-1252	-3260	-3944	-21728	-3832	-12264	1085	-6112	-1203	-6504	7264	-3752	1013	-690	124	-3472	9384	13928	83	242	-285	-16328	1704	-5000	575	916	158	-17208	2048	-3368	-594	1571	-367	128	132	1
-28888	-9708	20556	-1388	-2345	-4176	-25040	-5936	-12544	1892	-5972	-1045	-9272	3568	3480	91	-667	-5	-3752	9264	14136	224	338	-362	-17088	2816	-4296	547	949	108	-16952	2792	-568	-407	1467	-454	125	135	1
-32768	-7396	19012	-2002	-1903	-4164	-24968	-6880	-15904	1713	-5239	-505	-13528	-5112	8832	-1316	-595	-686	-3104	10872	14368	375	542	-511	-17640	2768	-2824	407	1048	102	-17152	3880	1912	10	1375	-461	125	140	1
-32768	-3824	10124	-942	-2586	-3694	-18744	-3016	-17448	814	-3988	-585	-20608	-9720	15192	-1864	-342	-1527	-3968	9744	15232	466	871	-601	-17760	3144	-2816	403	1283	35	-17200	4624	3416	314	1291	-363	123	137	1
-32768	16356	-3912	-636	-2467	-2152	-13944	-3776	-19640	-66	-2827	-589	-19864	-7576	19592	-1600	250	-1168	-4056	9616	14776	645	1182	-728	-18720	1328	-3000	294	1554	-65	-18024	3416	3120	534	1292	-154	122	143	1
-32768	23736	-10900	-2218	-1673	55	-9376	-528	-19608	-1646	-1335	-839	-19144	-10800	13976	-1371	-31	-471	-4192	10336	15224	749	1563	-801	-18968	2408	-3712	387	1778	-144	-18056	4432	2752	995	1302	-253	124	136	1
-32768	13248	-10016	-1252	-814	1492	-7856	-3344	-19336	-2497	487	-713	-18912	-10936	12808	-1347	-65	-319	-4152	11216	15256	889	2013	-984	-19320	2352	-3376	281	1998	-276	-18536	5928	2400	1212	1055	-286	123	129	1
-32768	5228	-5104	629	52	1825	-8984	-2856	-20056	-1913	2071	-78	-12696	-8344	2856	-490	394	-135	-4064	11312	14752	1001	2366	-1282	-18880	2304	-2712	285	2273	-360	-18480	7176	3968	1046	592	-314	108	129	1
-26132	-32768	180	4898	1552	2772	-11696	-14384	-3952	-2244	2758	65	528	-2968	-10016	-113	987	-99	-4152	10912	15088	1284	2785	-1655	-19896	360	-2688	484	2591	-417	-18632	9216	7568	939	-178	-270	120	128	1
25344	8372	17452	1238	4094	1568	-32768	4640	16016	2072	1315	-437	-27176	-15384	-8528	-862	1941	450	-3552	12784	17536	1621	3622	-2083	-27168	1848	-656	1014	2895	-702	-21144	13440	10240	1079	-1015	74	124	124	1
-31952	3028	32767	1083	3560	1725	-16176	-13168	-13784	6936	3017	721	-30032	-7632	16664	4868	299	-3	-3592	16912	16768	1864	4611	-3042	-32248	-5376	3424	1596	3004	-787	-25272	5040	16312	238	-2018	55	126	124	1
-20296	-12240	18304	355	2363	1767	-13664	16848	-11800	3744	3545	947	-16328	18160	-720	5006	1699	1133	-6840	22832	19008	1572	5599	-4071	-32648	-736	4560	2701	3079	-695	-21800	-3688	16584	-722	-2132	-617	126	116	1
-180	2088	12824	1342	325	590	-22720	-9656	-6808	1411	2698	-598	-15768	14568	-16008	1601	1594	231	-12816	32272	23776	499	5927	-4863	-31792	12992	-4248	1679	3328	-774	-22064	-736	6936	582	-2031	-566	136	125	1
-11964	-11368	9228	730	176	351	-17040	-3096	-12872	1632	1871	-832	-11096	5768	-11000	-2185	1731	168	-8368	21976	27200	-1313	5900	-5119	-25216	12928	1376	476	3713	-1037	-23256	8728	-11448	2474	-1228	115	131	122	1
-9224	-8636	12616	372	45	134	-14208	2464	-9128	-481	1239	-253	-11104	-2704	-11072	-2557	1798	207	-5512	16144	17720	1596	4479	-3719	-23168	1320	-11568	-1903	3757	-1486	-27896	10256	-10280	1537	-1716	963	139	122	1
-6988	-7576	11908	190	59	61	-16728	-480	-6408	-2906	595	-328	-19016	-4888	-8320	-1607	1837	-357	-14896	32767	32767	105	352	-2164	-16832	6296	-22424	-3021	2374	-1059	-27800	4648	-4968	-648	-2794	1190	128	127	1
-7216	-6636	12748	63	71	40	-19136	-1528	-4856	-3957	241	-474	-17416	0	-1664	-597	1638	81	8048	15696	18328	-2903	-1795	-898	-20928	-2272	-176	-376	1271	-779	-32184	888	-6504	-1832	-3254	1059	119	126	1
-7624	-7864	12256	-128	161	13	-16880	-11112	-2432	-2886	139	-609	-17672	40	-2640	-775	1531	664	5480	7088	12128	-1501	-2620	-1003	-13944	-1368	-5792	234	-322	-162	-24384	1512	-6528	-1717	-2914	1488	3	131	1
-7512	-8432	11436	-212	187	29	-13448	-14656	-1144	343	550	-370	-17320	-4520	-3320	-612	1411	1182	7512	15968	7920	-1235	-3147	-108	-6664	-696	-6144	867	-1041	-378	-21432	-624	-5464	-769	-2939	1668	159	129	1
-7420	-8812	11052	-130	164	45	-12040	-10464	-2600	2723	918	123	-13816	-6256	-2744	30	1371	1159	6472	11192	6496	-1696	-3102	1001	-6280	-3408	-5256	1828	-1686	-216	-18352	-208	-6144	374	-2594	1279	134	126	1
-7784	-9488	10288	108	99	120	-15680	-1672	-2376	2434	846	180	-13600	-5280	-2520	549	1405	810	6016	9904	6472	-1608	-3091	1179	-8992	1112	-6936	1821	-2626	63	-18648	2040	-6624	631	-2352	1349	131	129	1
-7648	-7892	11768	178	51	142	-18648	3016	-1992	-76	458	-198	-16128	-544	216	835	1514	641	1016	12296	8864	-246	-3154	2662	-8816	2704	-6920	1175	-3499	204	-16608	2544	-7384	12	-2182	1281	125	126	1
-7720	-7420	12028	36	128	103	-15744	-2120	-720	-1908	263	-291	-15800	880	1728	810	1655	715	-2056	11712	10952	-106	-3568	3077	-7584	3296	-7616	447	-4220	452	-14928	2344	-7968	-757	-2132	915	122	126	1
-7980	-8232	11500	-23	160	90	-14504	-7912	784	-1919	423	-205	-14576	-2256	4080	-65	2085	738	-5000	11208	12432	277	-4201	3178	-7464	3424	-7624	325	-4306	494	-14712	2472	-8200	-907	-2104	844	123	122	1
-8080	-7940	11240	13	128	106	-12568	-10456	608	-736	692	-85	-15856	-4400	3200	-736	2252	599	-6688	14080	12760	394	-4797	3049	-10104	1648	-8560	-502	-5034	770	-10392	688	-8200	-1896	-1723	745	124	128	1
-7864	-6228	10940	-60	70	-106	3032	-7744	-18032	-613	621	2133	-18280	-5008	-304	-306	1858	244	-8512	14096	15344	462	-5074	2943	-11568	536	-10696	-796	-5484	930	-8904	-1192	-7696	-1977	-1439	589	123	124	1
-6968	-9176	10764	162	-11	252	-14928	-2792	-4912	-141	1545	-1144	-17752	-2992	-2888	3	1269	130	-10688	15296	14896	944	-5282	2841	-14448	-224	-9440	-652	-5781	958	-8344	-1896	-8304	-2083	-1210	396	123	125	1
-8496	-7708	12048	110	66	166	-15728	-5288	-3040	276	1375	186	-15672	-2400	-3688	-231	1205	228	-11304	20200	15528	876	-5016	2969	-15568	-2592	-10360	-316	-5940	1120	-7416	-4008	-8136	-2202	-1206	212	124	127	1
-7612	-7852	12064	60	107	209	-16880	-3320	-4264	-231	1140	-44	-15816	-904	-4464	-574	1368	479	-12760	21912	19944	1076	-4392	3509	-18352	-1776	-12376	122	-6092	1293	-6824	-5952	-7160	-1909	-1115	-35	124	125	1
-7700	-7468	12588	-64	223	230	-15984	-4040	-3672	-647	977	11	-15328	1024	-4816	-360	1388	547	-17216	28120	23184	1074	-3862	4364	-25448	240	-15552	334	-6248	1684	-7480	-5944	-2528	-1393	-855	-255	125	126	1
-7380	-8632	12892	-217	409	312	-15424	-5488	-3208	-717	977	-21	-15872	672	-3808	-268	1124	414	-25352	21000	25368	1513	-3095	5075	-27024	4360	-15336	-269	-6186	1681	-8424	-992	4864	-731	-551	-42	121	125	1
-8308	-7464	12632	-230	675	441	-16464	-5120	-2600	-684	1024	-135	-18088	-1216	-1680	-411	982	203	-32768	17832	24840	1818	-2712	4543	-25984	6888	-17648	-1230	-5423	1119	-12256	9048	10528	637	-64	780	127	127	1
-8580	-8048	12376	-202	866	513	-16032	-5832	-2208	-583	1196	-15	-17288	-3560	120	-680	1047	160	-32768	14688	14936	348	-2726	3298	-21096	5344	-19456	-2266	-4035	690	-21432	11328	18984	1476	243	1264	125	125	1
